CH1,CH2,CH3,CH4,CH5,CH6,CH7,CH8,CH9,CH10,CH11,CH12,CH13,CH14,CH15,CH16,CH17,CH18,CH19,CH20,CH21,CH22,CH23,CH24,CH25,CH26,CH27,CH28,CH29,CH30,CH31,CH32,CH33,CH34
1.501181169,0.215445902,-0.031422566,-0.233003838,0.012161727,-0.103963363,-0.159405138,0.014010959,-0.231645661,1.436465586,0.283936222,-0.008372272,-0.204947034,0.910803719,-0.069586138,0.104281158,0.237867805,0.106389645,-0.066496812,-0.336691657,0.007244468,0.03165258,0.373273458,-0.22795544,0.090505769,0.207302687,0.274115829,-0.253019716,-0.118508033,0.383179134,-1.278257394,0.113719199,0.055908201,-0.160871607
3.785954718,0.145815778,0.074955082,-0.252119414,-0.140486571,-0.079933095,-0.154343909,-0.053737577,-0.215678535,1.391659689,0.281791952,-0.027219066,0.184761879,0.863122959,-0.052858118,0.060304677,0.316975474,0.117881329,-0.034878795,-0.364258448,0.01214686,0.018850583,0.359378467,-0.228034484,0.068458096,0.24261226,0.13172094,-0.132113842,-0.078829661,0.591928916,-1.362799453,0.993872307,0.07481286,0.12533634
3.346487773,0.10117797,0.280529003,-0.281000614,0.058086118,-0.175901781,-0.172748846,0.062862088,-0.237138024,0.239357493,0.209215502,-0.199825969,-0.019855829,1.004411842,-0.016779433,0.295463164,1.066310845,0.157592795,-0.023494559,-0.347659405,0.104105835,-0.033425786,0.25149198,-0.303607841,-0.323914288,0.068082913,0.345572368,-0.091543962,-0.24428775,0.19495149,-1.108157183,1.287879496,0.134281429,-0.168353487
1.836630471,0.261420416,0.219537067,-0.199247692,0.115935082,-0.177860682,-0.132425685,0.035157455,-0.267671858,0.952162547,0.129422144,-0.036079384,0.090867083,1.005809736,0.019671199,0.252303347,0.318774676,0.193418235,-0.135539895,-0.631572166,0.147109161,0.00474112,0.312925841,-0.237886771,-0.087377399,0.138899457,0.229320255,-0.138503897,-0.172704635,0.171572378,-1.019725657,0.628188897,0.095094815,0.154886683
0.90399996,0.123496874,0.156816695,-0.245090248,0.015886314,-0.211126299,-0.106827486,0.083721165,-0.248000021,0.988833665,0.240840785,-0.019104005,-0.025083284,0.969149006,0.007236831,0.192262116,-0.207101353,0.191472369,-0.189494354,-0.821041111,0.11320204,-0.005048017,0.324412072,-0.203568422,-0.028068274,0.141223793,0.187253492,-0.170317121,-0.178775926,0.124911304,-1.137909227,0.555511391,0.094406167,0.210715796
1.124070924,0.14848919,0.208402216,-0.263962249,-0.007125455,-0.201768674,-0.13659535,0.131646828,-0.246685618,1.143424975,0.262405206,0.034466329,-0.069810285,0.953935063,0.000331913,0.184888059,-0.296635459,0.189266021,-0.05311653,-0.9137524,0.141195264,-0.00405342,0.328945866,-0.150814802,-0.017684152,0.139379645,0.207749634,-0.217050073,-0.185891682,0.045116466,-1.044995941,0.115280537,0.055908201,0.12600092
0.866970079,0.056540162,0.120069126,-0.250571927,-0.010850042,-0.179910745,-0.142401057,0.112639235,-0.18879078,1.224397838,0.251861819,0.066966339,0.075955452,0.965796578,0.004717504,0.192861722,-0.442024825,0.172052785,-0.106489693,-1.007012961,0.149941867,0.024774963,0.334201097,-0.093962212,0.004578196,0.14735768,0.038206519,-0.155931091,-0.204447392,0.000293318,-1.013572002,0.217546452,0.055908201,0.171092562
0.977233658,0.240438218,0.192014537,-0.197116877,0.149346576,-0.158569567,-0.034860789,0.152281143,-0.12933096,1.224872923,0.1889394,0.079782618,-0.028891609,0.959785784,-0.010138382,0.195469145,0.172612867,0.195266307,0.000546952,-0.8839709,0.165842966,0.054120845,0.347273092,-0.067596926,-0.009113912,0.156399011,0.120401941,-0.124257044,-0.20054477,0.022704892,-1.086619161,1.086579241,0.113999474,0.338129135
2.551101058,0.193126998,0.213887013,-0.170222172,0.112309643,-0.145605593,-0.020399196,0.181199213,-0.116235405,1.137587798,0.258414349,0.076815079,-0.056970417,0.997305562,0.012408711,0.223654124,-0.127875334,0.215156894,0.049012353,-0.905621607,0.196255815,0.051888948,0.387996067,-0.038850221,0.028557176,0.150805713,0.007562509,-0.194176917,-0.197098902,0.112480233,-1.267995393,0.432781216,0.094406167,0.185835809
0.58322463,0.191790292,0.188651755,-0.179919221,0.064662109,-0.158152913,-0.059214541,0.13327355,-0.14709456,0.995962174,0.231865851,0.042653241,0.037765906,0.933964594,0.000452992,0.201964936,0.340391844,0.200843587,0.006529594,-0.778229076,0.161714741,0.021977996,0.342757142,-0.052153154,0.01503303,0.142587158,0.010442576,-0.244946271,-0.21072003,0.14793552,-1.335612451,1.135453557,0.113999474,0.337377134
2.184567222,0.102514676,0.190052749,-0.200905368,-0.01752518,-0.156567696,-0.057442254,0.130833467,-0.118241715,0.835504621,0.185380507,0.016194963,-0.08993607,0.91142952,-0.024340368,0.162255561,-0.35857676,0.170981497,-0.030228565,-0.75226222,0.146584006,-0.00507314,0.318654121,-0.087712853,-0.019012342,0.132153005,0.149655942,-0.169886128,-0.214662463,0.102370685,-1.311845389,0.571328664,0.055431577,0.153448157
3.292027955,0.147152484,0.19258005,-0.203308519,0.014361464,-0.15378988,-0.069695835,0.092818281,-0.175861706,0.84195918,0.194822988,0.02832007,-0.219803869,0.923007369,-0.017507648,0.165012302,-1.333130558,0.175354633,-0.210351904,-1.170746203,0.179467037,0.012661341,0.325509672,-0.049596197,0.032312031,0.149144576,-0.188366434,-0.271544152,-0.214888334,0.159753949,-1.370107876,0.011613741,0.055908201,0.147934122
0.206377961,0.032884552,0.171017232,-0.21210794,0.058185264,-0.164217846,-0.043429141,0.130833467,-0.153383465,0.658053482,0.153739498,0.002399492,-0.103403471,0.851824129,-0.024742329,0.131189664,0.380257477,0.16759659,0.007828035,-0.548094306,0.137550926,0.023394557,0.333481194,-0.10777489,-0.040387529,0.114613253,0.128787781,-0.168028274,-0.218820963,0.101274446,-1.470496201,0.104610486,0.094406167,0.047010169
1.916092281,0.056540162,0.135636482,-0.231100481,-0.017426034,-0.163409589,-0.010160385,0.092818281,-0.145930156,0.462386643,0.196772268,0.006546818,-0.022623338,0.863325942,-0.013052244,0.131215976,-0.082687018,0.146794495,-0.124364704,-0.861439546,0.124709136,-0.004765799,0.304411974,-0.101788534,0.018022168,0.143586278,-0.005535355,-0.235206268,-0.20900976,0.101887088,-1.490028753,0.810381877,0.055431577,0.48042106
1.295519724,0.078859066,0.206526514,-0.217021158,0.006912291,-0.162533304,-0.019860457,0.101915397,-0.18929486,0.311272523,0.124709186,-0.010516325,-0.014318857,1.508179892,-0.018965073,0.093724424,0.030367929,0.142518631,-0.049332368,-0.924229252,0.137028583,0.002796418,0.319092392,-0.087982028,0.014299303,0.127577045,0.108055815,-0.179255663,-0.213874037,0.14793552,-1.484489643,0.450589433,0.094406167,0.094885381
3.100622618,0.169471388,0.087640938,-0.183707829,-0.054622022,0.057501844,-0.103255456,-0.064939452,-0.125937921,0.6842834,0.306288779,-0.082252912,0.078972752,0.849490827,0.000199748,0.124731434,-0.391167755,0.17546542,-0.061599797,-0.687602301,0.149017871,0.124004271,0.433429706,-0.078109309,0.129207879,0.3072495,-1.381293171,-0.17619181,-0.038715806,0.955231667,-1.648607707,0.234619892,0.073592543,0.305169327
1.21208665,0.308045978,0.061744405,-0.202212668,-0.026459964,0.107570422,-0.018200898,-0.018446359,-0.07400389,0.824004793,0.347725603,-0.091393094,0.042445615,0.904203375,-0.010555318,0.184562053,-0.242327557,0.166682087,-0.03418401,-0.783220709,0.066189574,0.160465839,0.48948093,-0.069559727,0.183373477,0.34269339,-1.030243196,-0.186583041,0.016606457,1.053043855,-1.629950511,0.709492969,0.034829977,0.166641356
1.399897668,0.21277249,0.000117167,-0.256210816,-0.227490589,0.086893098,-0.034767172,-0.05653023,-0.042409289,0.58154437,0.319865066,-0.130119397,0.024926702,0.808847286,-0.047236343,0.082615883,0.152420351,0.1563689,-0.02907618,-0.303376968,0.034108621,0.099012952,0.436603766,-0.109994447,0.162942168,0.341832201,-0.945449393,-0.148379449,0.025046499,1.101311996,-1.821597876,-0.223137929,-0.025754506,0.162387726
0.779785921,0.123496874,-0.036406727,-0.335229791,0.063335553,-0.062623448,-0.08312767,0.042757824,-0.169098758,0.186452533,0.270679562,-0.142970519,0.01459424,0.721040023,-0.086304978,0.023609795,-0.309545718,0.088899156,-0.07887244,-0.349835823,-0.036364092,-0.020419362,0.315073867,-0.193744121,0.066797219,0.221000405,-0.173209148,-0.252946711,-0.054127866,0.584812598,-2.075626516,-0.11664721,-0.100839004,0.094155982
0.693930444,0.078859066,-0.007631744,-0.303885148,0.17158431,-0.138738497,-0.06952164,0.113452596,-0.215815504,0.039213121,0.210588658,-0.091584006,-0.033525366,1.676074816,-0.076371508,0.116080278,-0.077324656,0.091440475,0.000332071,-0.139375926,0.031398299,-0.049941699,0.26876995,-0.191861221,0.012845398,0.141425585,0.495923168,-0.130226434,-0.149806422,0.011499105,-1.685626126,1.01995773,-0.082678038,0.141727396
2.793595616,0.056540162,0.022988298,-0.232063461,0.031349762,-0.094117878,-0.058304052,0.073060536,-0.221622072,0.288537097,0.207660992,-0.030067762,0.162462776,0.773971088,-0.029595871,0.094945913,-0.188019608,0.127525808,-0.034612525,-0.499048932,0.073864339,0.043976038,0.359855555,-0.10745339,0.129148761,0.226667911,0.15445359,-0.255395509,-0.096117155,0.173023685,-1.608954431,0.01852072,-0.023313872,0.109624042
1.328404021,0.169471388,0.023821321,-0.211171629,-0.010076007,-0.045155066,-0.012842615,-0.004996635,-0.162213036,0.401634239,0.160250503,-0.031723729,0.023370237,0.756794493,-0.021295305,0.078543904,-0.504291648,0.135885552,-0.007935753,-0.686279702,0.077682074,0.081882773,0.396648664,-0.05601191,0.197675078,0.234044635,-0.050979222,-0.20645487,-0.067843938,0.394610152,-1.719244123,-0.177566612,-0.060856121,0.185300053
1.610533651,0.170808094,0.067537217,-0.19871035,0.01206258,-0.037660593,0.003427485,0.102266024,-0.143544476,0.381783337,0.206454399,-0.003984428,0.029230888,0.798927373,0.016587727,0.137575955,-0.778142336,0.154041176,-0.106633246,-0.584718875,0.127505785,0.084387973,0.392427383,-0.040026373,0.151913892,0.236908709,-0.131950129,-0.230408773,-0.102101358,0.276810105,-1.722056593,-0.284771276,0.05421126,0.250715383
2.119694972,0.169471388,0.134161207,-0.203125189,0.041848634,-0.063623942,0.044651328,0.181199213,-0.145316293,0.172609444,0.229370474,-0.004869648,0.12290131,0.782714237,0.01516249,0.168842872,0.588302999,0.162650334,-0.086875891,-0.503685053,0.161449214,0.05515168,0.352660873,-0.051620579,0.105999276,0.158476214,0.339633185,-0.152306116,-0.158382713,0.022704892,-1.386481308,0.61880612,-0.002712272,0.137173577
1.570841344,0.261420416,0.217835613,-0.199243736,-0.062675536,-0.059835064,-0.017645824,0.091717501,-0.184934322,0.148455252,0.229162055,-0.007789622,-0.098477555,0.756232077,0.021584575,0.121940997,0.256963393,0.172750971,-0.078931665,-0.62730699,0.144606078,0.070011872,0.380292695,-0.030950132,0.152161035,0.20878867,0.160678392,-0.152549085,-0.108376756,0.124911304,-1.59063096,0.685516313,0.07481286,0.228356019
0.611418683,0.145815778,0.124575874,-0.216809929,0.035173495,-0.069335903,-0.04429997,0.12092299,-0.163810373,0.136610251,0.159303057,-0.004778521,-0.026283161,0.731057022,0.032245388,0.118384551,0.091309474,0.176469167,-0.077258219,-0.758239087,0.150453955,0.061546751,0.359811927,-0.044857643,0.104191339,0.192907413,0.222673878,-0.199047339,-0.105479234,0.112480233,-1.622527159,0.492992367,0.05421126,0.215848368
1.305298962,0.123496874,0.180930096,-0.21364293,0.091398464,-0.068475117,-0.021000557,0.07317264,-0.172424645,0.054009983,0.182883832,-0.019341326,0.022370977,0.735547722,0.028004062,0.111866719,-0.387898532,0.156046426,-0.119375758,-0.728946411,0.147395065,0.064057956,0.367075506,-0.050826073,0.108047667,0.194237998,0.13062724,-0.138802902,-0.107679494,0.056451298,-1.635856892,0.531628324,0.03360966,0.16018169
0.259139058,0.261420416,0.180936949,-0.195234488,0.068485842,-0.002019614,-0.084557955,0.013994851,-0.187105026,0.110464922,0.200743815,-0.063460994,0.01824215,0.682199918,0.021714951,0.071997681,0.007805349,0.156882995,-0.019557697,-0.58811089,0.141003348,0.080817786,0.389441859,-0.049069544,0.131119838,0.248692144,0.023328085,-0.214782102,-0.067463852,0.311871389,-1.686452795,0.332555836,0.015448694,0.009585738
1.204192803,0.26008371,0.023380292,-0.232425827,-0.040536949,0.115571859,-0.042736391,0.015703849,-0.128663062,0.318844657,0.226525836,-0.086709861,0.033429615,0.629495615,0.028640598,0.026039078,-0.398617788,0.173274118,-0.021914266,-0.8331209,0.147353925,0.1012862,0.415177446,-0.026123661,0.194684089,0.315342525,-0.334267601,-0.155794081,-0.01573152,0.667401994,-1.958196737,0.29859314,-0.002712272,0.066074514
1.727077872,0.169471388,-0.035543073,-0.229938032,0.135222264,0.040497914,-0.050137237,-0.034050201,-0.128462273,-0.173641628,0.206083202,-0.154238042,-0.001476413,0.675581926,0.033379437,0.105354995,0.012964136,0.155727814,-0.104041858,-0.666615804,0.140442706,0.047275935,0.359744665,-0.063653756,0.072462193,0.219227359,-0.287125421,-0.183278633,-0.0865312,0.372301575,-1.727160586,0.416862791,-0.026974823,0.050759909
3.135852624,0.147152484,-0.028835051,-0.314638685,-0.024101172,0.109931449,-0.09537814,-0.084677754,-0.075038109,0.128426547,0.22777057,-0.165025933,0.103821156,0.580466551,-0.007350592,0.017890073,0.855238152,0.118769808,-0.004719593,-0.277042196,0.054446357,0.055385612,0.369603091,-0.088386712,0.126001259,0.295547237,-0.377595801,-0.142235119,-0.007159938,0.625997956,-1.973337305,1.37855905,-0.064517072,0.006219276
4.188769293,0.07752236,-0.014247137,-0.32999541,-0.023608558,0.093091504,-0.167949298,-0.113650188,-0.142900781,0.161521718,0.234552181,-0.174138393,-0.017601971,0.525265819,-0.030624524,-0.065299973,-0.266718304,0.082539552,-0.011169457,-0.265906437,0.014786107,0.03179742,0.365018078,-0.115435752,0.171774403,0.33549164,-0.593670743,-0.150065072,0.006581766,0.654197754,-2.061346436,0.456475376,-0.101400026,0.164027395
2.177117008,0.010565648,-0.105074498,-0.393638928,-0.168807683,0.01516869,-0.096915089,-0.054089737,-0.099873003,-0.013376073,0.178249376,-0.149756175,-0.003171469,0.48860386,-0.055464823,-0.052776787,0.368410396,0.042468525,0.033001319,-0.174731392,-0.025753841,-0.026271344,0.295212615,-0.183627687,0.057980103,0.255267848,-0.117900069,-0.165573918,-0.04192435,0.186730132,-2.095740545,0.037374352,-0.083800082,0.01461234
2.024584197,-0.033202364,-0.055720636,-0.341494831,-0.149520501,-0.005524724,-0.104286592,-0.119871719,-0.111555494,0.010264578,0.182358138,-0.144643153,0.173073686,1.341272158,-0.059556673,-0.096846293,0.502525356,0.026376763,0.008512678,0.003800663,-0.040166246,-0.044806914,0.264936159,-0.176308925,0.090619076,0.265193892,0.074977928,-0.139344347,-0.016084458,0.136117091,-1.965154804,0.942512169,-0.13828298,-0.005675507
2.118627874,0.055203456,-0.064627354,-0.397403347,-0.113849362,-0.051100945,-0.089325438,-0.062156783,-0.159757937,-0.195783688,0.138500253,-0.149665277,-0.00687693,0.451777744,-0.049429033,-0.075168372,-0.189845775,0.050831851,-0.02734041,-0.10040449,0.00729644,-0.053022419,0.245782099,-0.164656445,0.074341124,0.210489288,0.162433229,-0.181820138,-0.058196482,-0.087951398,-1.979041922,-0.050170958,-0.137721958,0.050371199
0.387020972,-0.010013664,0.060538778,-0.293561263,-0.038238065,-0.14893407,-0.082501919,0.033988542,-0.229404234,-0.746605107,0.103268077,-0.166261642,-0.028208208,0.525505594,-0.022661049,0.020269473,-0.21234807,0.036613801,-0.020643236,0.111785042,0.045608786,-0.10366979,0.195026635,-0.205706567,-0.057715751,0.132753566,0.363616575,-0.216298691,-0.16384257,-0.544006194,-1.369100761,0.268539545,-0.193887922,0.020147922
-0.631774021,0.010565648,0.094741681,-0.244954797,0.041848633,-0.136232363,-0.056441291,0.101915397,-0.196578785,-0.300901884,0.113253385,-0.100659091,0.046160386,0.526538684,-0.005816731,0.057393448,0.441247662,0.082196485,0.004587304,0.065192745,0.076254509,-0.083107411,0.207354981,-0.208152622,-0.087828213,0.142759206,0.541072575,-0.129100544,-0.155587772,-0.554300881,-1.32390555,1.111593423,-0.156443946,-0.025578004
-0.480378026,0.032884552,0.060251518,-0.243923819,0.055826473,-0.156054946,-0.082320319,0.072709908,-0.205723225,-0.177979453,0.107024803,-0.091488514,-0.024381096,0.551387426,-0.004735735,0.038569706,0.230999287,0.094823534,-0.034274684,-0.231709752,0.080517847,-0.057714058,0.240640067,-0.170025577,0.006241552,0.158285412,0.286070936,-0.183020461,-0.112796929,-0.452445915,-1.444904599,0.664340056,-0.175165934,0.134677321
-1.397749502,0.056540162,0.039282371,-0.229925772,-0.036713216,-0.177428195,-0.177110832,0.092180234,-0.294747597,-0.066524627,0.135805303,-0.065686961,-0.032563877,0.505734104,-0.000881208,0.042567853,0.858983655,0.12453379,0.159301211,-0.145698449,0.115117285,-0.070720571,0.224383216,-0.140553589,-0.000498165,0.156486618,0.553793686,-0.135986529,-0.104545557,-0.400449946,-1.56855905,1.329868772,-0.100839004,0.082856808
0.365905542,0.032884552,0.036409009,-0.225963453,0.054361531,-0.182062621,-0.14450305,0.101915397,-0.242432515,0.169420883,0.133615395,-0.035392484,-0.023543671,0.547741132,0.015955634,0.042086021,-0.157440886,0.103841273,-0.229690306,-0.326454798,0.092969092,-0.05862784,0.23575281,-0.126281465,-0.006101169,0.170458553,0.451492426,-0.157624554,-0.122518691,-0.421300587,-1.627954854,1.068799245,-0.119560992,0.080234992
1.795954787,0.14848919,0.059558802,-0.25104366,0.018086051,-0.191272486,-0.119253392,0.101915397,-0.243937619,0.268300476,0.133790353,-0.007098358,-0.039292743,1.241197575,0.019142654,0.057348476,-0.113017892,0.117855467,-0.083258862,-0.282632892,0.113500552,-0.078204018,0.212750425,-0.166343268,-0.067654589,0.122017454,0.304351996,-0.226201109,-0.165955435,-0.554300881,-1.540772391,0.792436438,-0.100839004,0.385796706
0.342842178,-0.010013664,0.032987668,-0.272522751,0.010736026,-0.194078859,-0.15367335,0.072709907,-0.246690525,0.470597658,0.117507807,-0.000329896,-0.042761745,0.48514576,0.008976141,0.016169498,0.093733257,0.126870782,0.00761708,-0.209828664,0.102950064,-0.097016211,0.217699086,-0.144095525,-0.010771242,0.150547864,0.603395726,-0.205837863,-0.154340641,-0.534120971,-1.63624059,0.590987002,-0.119560992,0.174617074
0.317235462,0.010565648,0.051048301,-0.282652843,-0.066400123,-0.189550592,-0.112275983,0.12092299,-0.247399914,0.546330311,0.117239471,0.016815704,0.043480633,0.498627367,0.017711708,0.044242377,-0.018577345,0.121718353,0.01275733,-0.18897665,0.118463634,-0.121505007,0.188110922,-0.165414678,-0.067749537,0.110940427,0.384536148,-0.241629657,-0.168246288,-0.595479629,-1.479147959,1.397832999,-0.137721958,0.29985417
2.470429791,-0.032332568,0.100811058,-0.283243373,-0.070124709,-0.197443332,-0.123189311,0.091717501,-0.266768384,0.217435488,0.10827761,-0.073409652,-0.10041236,0.545754336,0.008526755,0.07191238,-0.493156845,0.100907662,-0.124508545,-0.415479254,0.099404369,-0.108656063,0.183790418,-0.175274805,-0.085124881,0.135551771,0.064288203,-0.143729547,-0.156878015,-0.655748381,-1.440772901,0.949210711,-0.137721958,0.126383151
2.939056586,0.055203456,-0.024344787,-0.251302227,0.032715558,-0.199952713,-0.125364277,0.073172641,-0.245052442,0.384728308,0.085322453,-0.031831863,0.030139188,1.576984927,0.022429659,0.068612842,0.251904154,0.116631929,-0.071005501,-0.283526361,0.103386685,-0.08992873,0.203392658,-0.156150892,-0.045838258,0.128705059,0.365821496,-0.201912713,-0.175308659,-0.66486837,-1.452167689,0.884330099,-0.080798426,0.085920717
4.179182196,-0.01088346,0.050712711,-0.251987075,-0.09456218,-0.21393052,-0.110994792,0.092180234,-0.260519476,0.193543699,0.119070189,-0.078132658,0.091778339,0.516829209,0.031678292,0.066849198,-0.009268131,0.119641469,0.079393077,-0.103124822,0.09889764,-0.082665803,0.203367689,-0.14979177,-0.043942387,0.143587966,0.487047694,-0.177626585,-0.176114231,-0.733757321,-1.488622712,0.875520276,-0.11899997,0.329973575
1.378304267,0.056073252,0.078836117,-0.223473152,0.158134887,-0.219279036,-0.111956004,0.130833467,-0.255217934,0.157678676,0.147323621,-0.105181849,-0.07407153,0.491751524,-0.008143028,0.032121308,-0.123334584,0.087659428,-0.093015251,-0.285662937,0.084638644,-0.111951762,0.192570218,-0.152398769,-0.028578508,0.117388082,0.483811288,-0.143230622,-0.191840249,-0.733757321,-1.463467206,1.035452507,-0.100839004,0.18436994
0.731244351,-0.010013664,0.088491711,-0.221051796,-0.041962651,-0.21865841,-0.102768139,0.063787554,-0.250120861,-0.107744162,0.088651388,-0.146860863,-0.102614662,0.521861894,0.010211614,0.07910397,-0.189617881,0.110211203,-0.070150339,-0.328616715,0.116153211,-0.121900202,0.159310099,-0.160482645,-0.079995785,0.114546124,0.072037789,-0.18063924,-0.191099948,-0.654748801,-1.520136475,0.238674728,-0.11899997,0.178751224
0.973304693,0.057409958,0.084420035,-0.188245276,0.127121424,-0.212444823,-0.08141698,0.092818281,-0.207448984,0.137779837,0.072715162,-0.089776818,-0.034655883,0.471436873,0.025060418,0.02188506,-0.241836858,0.09677387,-0.082526068,-0.284061853,0.086802151,-0.100781629,0.184787885,-0.151935489,-0.016812556,0.134959972,0.157061541,-0.164609973,-0.1733623,-0.675338175,-1.448613202,0.933249652,-0.119743662,0.229471752
1.263048621,0.058279754,0.035947394,-0.223700308,0.061810704,-0.219196766,-0.079315551,0.12092299,-0.24601415,0.044627895,0.050690903,-0.119473971,0.027660314,0.446291459,-0.008615763,0.000275072,0.552605479,0.082978779,0.02220757,-0.278113939,0.057741046,-0.111721537,0.194005837,-0.177963114,-0.038096954,0.141057628,0.225127843,-0.178690103,-0.144206924,-0.513668085,-1.475847937,0.817816568,-0.081457721,0.081137511
1.333328735,0.033754348,-0.024559151,-0.233692936,-0.042955647,-0.191278176,-0.055891726,0.053126373,-0.205873629,0.055509054,0.075550604,-0.135003371,-0.275022991,0.44052447,-0.024021051,-0.022946336,-1.27519073,0.091042018,-0.083694924,-0.31641543,0.068004011,-0.117864032,0.190104968,-0.177483074,-0.01798179,0.140239928,-0.126707058,-0.24668084,-0.112511464,-0.304422123,-1.424890949,-0.161835082,-0.101400026,-0.010990849
1.338362408,-0.054651472,-0.026205913,-0.242877232,-0.098286767,-0.162387125,-0.075868395,0.063386926,-0.18619717,0.090289479,0.113940573,-0.148229816,0.025843323,0.398815093,-0.022417462,-0.03587581,-0.371078974,0.09630051,-0.122688091,-0.378101219,0.027859224,-0.130619001,0.192351599,-0.184811963,-0.006118094,0.180156373,-0.132140787,-0.260880698,-0.101839155,-0.132664161,-1.553686213,-0.507970674,-0.11899997,-0.013468779
3.542823159,0.055203456,-0.063773728,-0.267410285,0.152984598,-0.237604555,-0.146250569,0.034870035,-0.255084202,-0.142267704,0.070061476,-0.174225002,-0.090317538,0.329640925,-0.047156698,-0.071171594,0.735018214,0.069430064,0.116730235,-0.03172888,-0.021756393,-0.170006818,0.148013019,-0.24468662,-0.087550059,0.142211272,0.31442813,-0.250832499,-0.119353288,-0.325741147,-1.386233567,0.891806285,-0.137721958,-0.17439884
3.765151899,-0.055521268,-0.059864212,-0.255149228,-0.030184549,-0.211387297,-0.126081728,0.034231988,-0.236255059,-0.041849292,0.114365701,-0.146687912,-0.124014387,0.332896895,-0.047991758,-0.094680067,-0.74470881,0.054891577,-0.109144677,-0.131463412,-0.011245642,-0.177574186,0.144822822,-0.198607153,0.015194107,0.17645307,0.226776823,-0.132873321,-0.080242957,-0.166309432,-1.394298816,-0.339671823,-0.100839004,-0.109119218
1.070615923,-0.01088346,-0.01474228,-0.236896124,-0.068699007,-0.161118213,-0.025404638,0.082445071,-0.13208414,0.174833187,0.059154837,-0.07640226,-0.036188297,0.385623671,-0.014507065,-0.042235932,-0.470762034,0.094851428,-0.113931725,-0.512744053,0.046189195,-0.15342387,0.155540196,-0.176953397,-0.026335918,0.143898018,0.009547128,-0.187416911,-0.105467531,-0.10058026,-1.351293112,0.008057652,-0.081457721,0.014766407
-1.651795553,0.056540162,0.075796958,-0.183976471,-0.036713216,-0.111393775,0.02180563,0.111187827,-0.082708472,0.361330857,0.054290197,-0.008380753,-0.117175604,0.491292548,0.038396852,0.025416816,-0.676924232,0.152902301,-0.081924113,-0.40719855,0.119370031,-0.092004319,0.192602962,-0.086678592,0.023895742,0.170554472,0.031832081,-0.13347695,-0.119571754,-0.067715674,-1.300096499,0.192838801,-0.060856121,0.220832507
1.896322972,0.123496874,0.077463737,-0.166799817,0.109259944,-0.103317042,-0.017345295,0.101915397,-0.099593073,0.361834791,0.106561339,0.005317892,0.006510413,0.44531667,0.038474939,0.016172357,0.15442053,0.156453144,-0.112163292,-0.425182041,0.090039493,-0.094737384,0.206909105,-0.121865448,-0.026125271,0.156537342,0.083696844,-0.220268629,-0.123251731,-0.122679969,-1.250847877,0.241807102,-0.021616931,-0.009367378
1.561828354,0.011435444,0.098799042,-0.178516721,-0.143004417,-0.087478797,-0.00496739,0.034694721,-0.088312095,0.357001702,0.104510411,0.025366718,0.047067563,0.445239557,0.05191426,0.005310831,0.045890265,0.145668682,-0.007553927,-0.322476166,0.087897293,-0.105934324,0.179275883,-0.140627374,-0.053132172,0.158317383,-0.048589713,-0.169068481,-0.109148656,-0.122679969,-1.25576098,1.147478143,-0.021616931,0.030489557
2.646739982,0.079728862,0.083977252,-0.152232813,0.077313393,-0.072663461,-0.010538046,0.072709908,-0.054295628,0.374725278,0.104326671,0.026617073,-0.046086928,0.431578761,0.040912761,-0.007010258,0.4205267,0.146415163,-0.061247274,-0.299815225,0.094355128,-0.11033517,0.204829163,-0.108952961,-0.016977007,0.151932465,0.12795201,-0.170040081,-0.122606523,-0.144779678,-1.256368769,0.715487893,-0.060379496,-0.090915232
3.413368517,0.055203456,0.012606261,-0.166653149,0.035074349,-0.073234162,0.002798838,0.091717501,-0.058589321,0.361089563,0.116459117,0.043277027,0.022454441,0.418162803,0.044452485,-0.009956883,-0.017508983,0.138523348,-0.065115809,-0.276419023,0.077953251,-0.133371397,0.184530937,-0.132585803,-0.020371332,0.175524011,0.099134987,-0.108522668,-0.115519399,-0.187628456,-1.345929812,0.381776469,-0.041474838,-0.156520661
4.299636477,0.032884552,0.073747899,-0.182027933,0.025206478,-0.082286143,-0.003613279,0.043041686,-0.043139758,0.292104634,0.077334392,0.00331821,-0.073437122,0.361572307,0.010811036,-0.059726952,-0.383070141,0.10199141,-0.045926791,-0.336527258,0.044488248,-0.139950313,0.185572915,-0.144798264,-0.019046156,0.159723821,0.058212798,-0.191902194,-0.123593829,-0.230266504,-1.425775647,0.253169245,-0.023313872,-0.086247861
4.236165583,-0.053781676,0.053334812,-0.212153006,-0.082843985,-0.069694935,0.012039262,0.043041686,-0.023169958,0.215882963,0.080114321,-0.004436094,-0.14959858,1.353541771,-0.008061814,-0.091526396,-0.051813728,0.069817252,0.004550235,-0.248194309,0.040104909,-0.148427959,0.166019546,-0.159729894,-0.02763065,0.122872436,-0.086737055,-0.240227463,-0.13407214,-0.241031381,-1.482321775,0.12555391,-0.099618687,-0.123891311
1.391681415,-0.118998796,0.080423032,-0.216975525,0.013480197,-0.063801364,-0.004141318,0.043041686,-0.008349412,0.12077971,0.06295785,-0.012521505,-0.06026638,0.257368259,-0.015919399,-0.138817748,-0.59610352,0.050542405,0.027440954,-0.160060769,0.019373329,-0.170779427,0.135067373,-0.164967438,-0.014600007,0.162169414,0.008924069,-0.192063509,-0.11829024,-0.251585528,-1.481325124,0.730926619,-0.062076438,-0.102123382
0.484469737,-0.010013664,0.065090509,-0.210783284,0.001762002,-0.061767452,0.005130519,0.053239581,-0.011726102,0.021421137,0.050108737,-0.029128893,-0.131972258,0.237592023,-0.037462369,-0.158546389,-0.632421409,0.027457445,-0.057296276,-0.250513215,0.011288677,-0.193673701,0.129175812,-0.183305134,-0.018299126,0.140440742,-0.144791124,-0.209966378,-0.120576625,-0.251585528,-1.438227249,-0.035538056,-0.023313872,-0.233120078
2.319849002,-0.1413177,0.071960186,-0.22612819,-0.100645558,-0.06007451,-0.027835943,0.062512012,-0.056127837,-0.065248271,0.076828117,-0.034972645,-0.083862976,0.19448482,-0.013781044,-0.153857312,0.103931547,0.060766696,-0.033481902,-0.117811676,0.002294244,-0.211828998,0.077514719,-0.20021307,-0.076979721,0.131816225,0.00879106,-0.199941736,-0.128186668,-0.230477234,-1.5091691,0.775524731,-0.002712272,-0.10158913
3.436202363,0.032884552,0.049392307,-0.238798201,-0.008650304,-0.062280896,-0.026166316,0.062974745,-0.067825387,-0.259733642,0.042972776,-0.075697705,-0.231939387,0.243843087,-0.029719559,-0.090899407,0.110430655,0.065466806,-0.002615833,-0.137065484,0.018099129,-0.276445817,0.023508005,-0.255883273,-0.167132387,0.104110224,0.08640171,-0.201614442,-0.16109832,-0.431458786,-1.374574518,0.272355993,0.016669011,-0.187813315
2.036157282,-0.032332568,0.033994944,-0.199773858,-0.15045359,-0.049908585,-0.04094257,0.091717501,-0.039997083,0.034171672,0.048756998,-0.011815981,-0.133803623,0.227333555,-0.013887317,-0.129059134,0.14677177,0.052857831,-0.031033315,-0.14619215,0.00455741,-0.227249215,0.058476764,-0.207107237,-0.079127882,0.109619193,0.095033285,-0.198667554,-0.15895204,-0.39938146,-1.470818914,1.136246341,-0.060856121,-0.098561797
2.128563885,0.011435444,0.189023323,-0.145760484,0.00027639,-0.004911647,0.01753091,0.12092299,0.022419239,0.341100013,0.079204029,0.101953197,-0.033727132,0.326823,0.045398429,-0.043612133,0.207194173,0.152881946,0.023178055,-0.407367409,0.117247848,-0.182913745,0.11199452,-0.130831405,-0.04984689,0.15166614,0.141212007,-0.173079199,-0.16920714,-0.389757504,-1.465808665,0.826504315,0.055431577,0.007991305
2.032963115,0.078859066,0.190238936,-0.120374605,0.033648647,0.004812013,0.023174116,0.092180234,-0.011277586,0.425177547,0.072785452,0.124358713,-0.162279811,0.346451295,0.072100612,-0.029773145,-0.133804496,0.163687535,-0.141237198,-0.214586653,0.120818323,-0.150696458,0.163223187,-0.09062035,-0.011414716,0.133418671,0.019722729,-0.194452612,-0.170278812,-0.388689018,-1.451340734,0.394884734,0.073592543,-0.160674915
1.103390957,0.032884552,0.244394791,-0.143204488,-0.072483502,0.000281105,-0.024445388,0.111825874,-0.05024455,0.308665421,0.076924201,0.114828978,-0.184271414,0.378139834,0.076829496,-0.022217092,-2.249643006,0.149712659,-0.189751685,-0.695256506,0.114055782,-0.173062599,0.139058203,-0.142766231,-0.094737619,0.118951614,-0.177355295,-0.248801128,-0.177642174,-0.462069871,-1.28173114,-0.759870946,0.016669011,-0.065579419
1.6877286,-0.03407216,0.219577762,-0.119184342,-0.058346607,0.027738158,0.036870558,0.131008781,-0.007591765,0.41550213,0.068751276,0.13891153,0.049926491,0.339901071,0.07729693,-0.022378094,0.272081414,0.160700008,0.002828623,-0.176648411,0.125156718,-0.141399526,0.1668686,-0.084860955,-0.053743877,0.123424988,0.431093737,-0.254466175,-0.176301115,-0.452309427,-1.218520738,1.387257724,0.055431577,-0.152289671
0.630534607,0.032884552,0.20763641,-0.113752011,-0.04953164,0.024935892,0.039653284,0.12092299,-0.000578295,0.449675861,0.059054694,0.134288712,-0.190428434,0.333079222,0.059651629,-0.066516932,-0.387658309,0.147670154,-0.137368079,-0.397165371,0.115858368,-0.152978733,0.146146672,-0.081661228,-0.023414508,0.125792551,0.144854569,-0.210022139,-0.178619694,-0.451775184,-1.196709895,-0.26661148,0.036050294,-0.272421334
0.862996979,0.099841264,0.226624134,-0.114167004,0.161859472,0.001019879,0.002525146,0.092180234,-0.039615454,0.467297401,0.06037274,0.148848536,0.000627061,0.289962712,0.066891299,-0.098543461,-0.511482625,0.124443031,-0.167356758,-0.451835174,0.083980503,-0.165582979,0.125067353,-0.108836292,-0.028456004,0.130028235,-0.064488426,-0.201491606,-0.168607091,-0.462467626,-1.208769798,0.329209354,0.07284885,-0.132273595
1.879598345,0.032884552,0.210897099,-0.115815129,0.052935827,0.005223524,-0.045542231,0.101452664,-0.037477647,0.442845414,0.05441989,0.129257311,0.041352099,0.263913722,0.053826092,-0.08865644,-0.048897696,0.11920617,-0.042092125,-0.392708004,0.098953944,-0.159273487,0.128970458,-0.105274237,-0.043300361,0.120137092,-0.157770612,-0.18425478,-0.167231913,-0.39938146,-1.183588862,0.25337916,-0.002712272,0.042592633
-1.379494969,0.010565648,0.241958688,-0.12384071,-0.103064257,0.012439255,0.062896398,0.063437478,0.015304452,0.357757269,0.098878905,0.11549641,0.005166967,1.41047075,0.057700726,-0.099268699,-0.645883414,0.103640054,-0.101146112,-0.157474418,0.066867913,-0.165495234,0.1223594,-0.106365611,-0.034194821,0.115353399,0.064961444,-0.151899315,-0.159542913,-0.336295294,-1.209754754,0.589084961,0.036050294,0.016641517
-0.785557939,0.01230524,0.229061332,-0.122698962,-0.042955648,0.006343214,-0.01049789,0.053702314,-0.065199101,0.287372898,0.066488784,0.089233994,-0.096549327,0.223963002,0.038462071,-0.138718933,-0.418487695,0.10972046,-0.008186141,-0.439976935,0.091160944,-0.175430993,0.09113406,-0.123554423,-0.067612185,0.105521345,-0.179647467,-0.208393446,-0.163409544,-0.293940411,-1.260543476,-0.1631048,0.036050294,-0.262217021
0.473793932,-0.011753256,0.206444152,-0.148804474,-0.056047723,0.003222802,-0.021357525,0.081982338,-0.0842103,0.224402834,0.05830528,0.058327995,-0.089046828,0.229534985,0.040977747,-0.129140779,-0.705339998,0.104063403,-0.035336066,-0.297247933,0.075473341,-0.181678563,0.089486912,-0.135677346,-0.066858775,0.115457893,-0.033281577,-0.230739265,-0.160334255,-0.315187,-1.204475332,-0.922750884,-0.042962224,-0.029129746
1.825379469,0.032884552,0.229734369,-0.150345251,0.0773733,-0.00448459,0.010486472,0.072247175,-0.030601632,0.178958552,0.044837739,0.053051027,-0.049405462,0.224204081,0.027842692,-0.113048959,-0.884060992,0.075387317,-0.144766231,-0.268980273,0.057740572,-0.20159533,0.054856099,-0.139045026,-0.052484627,0.107996243,0.149099991,-0.195399645,-0.166307673,-0.378530819,-1.118585306,0.063220951,0.034086284,-0.182771628
1.804074459,0.011435444,0.272206892,-0.142334319,-0.090837594,0.025856577,0.016635596,0.082445071,-0.025710325,0.304270199,0.053014788,0.093529227,-0.15116295,0.281579976,0.070871349,-0.090082251,-1.603016882,0.131030453,-0.111938393,-0.395471766,0.120536377,-0.185131365,0.106898601,-0.120781976,-0.054109,0.131666992,-0.157781244,-0.284084299,-0.159208316,-0.315048705,-1.042172993,-0.665197181,0.07481286,-0.035872407
3.527334724,0.03642776,0.238801,-0.110340494,-0.126076026,0.017665093,0.027695065,0.081982338,0.011831606,0.579359674,0.079533971,0.14370944,-0.048689785,0.276208112,0.094610661,-0.075069607,-1.270356619,0.170355833,-0.065851196,-0.452276721,0.141552505,-0.140566746,0.144625623,-0.078552245,0.018280442,0.126405768,-0.12542187,-0.426319477,-0.157177821,-0.304356263,-0.932870805,-0.822902012,0.073592543,0.011998728
3.152583922,0.169471388,0.16218074,-0.123885272,0.115776028,0.006112215,-0.005745828,0.062512012,-0.006459263,0.461689166,0.10084753,0.077008115,-0.161694849,0.256999793,0.063821649,-0.07591469,0.037975586,0.140665899,0.011972667,-0.512847767,0.121983691,-0.143924313,0.135242996,-0.091275365,-0.026947158,0.117810701,0.279405564,-0.169331648,-0.157447032,-0.304632853,-0.90628947,-0.012196797,0.035783225,-0.264245297
0.110176654,0.078859066,0.17741435,-0.097554781,0.049151335,0.01193452,-0.015982555,0.072247175,-0.050753627,0.623877582,0.02734348,0.117976161,-0.063069429,0.305321982,0.09429528,-0.057839737,-0.384707359,0.156992879,-0.139210498,-0.698888501,0.175910827,-0.110055322,0.154977743,-0.057087046,-0.01927639,0.110036231,-0.129626041,-0.24675563,-0.171483439,-0.315187,-0.893684655,0.159345567,0.036050294,-0.09066766
1.804099071,0.055203456,0.257574341,-0.111324542,0.073588806,0.020806507,0.01067659,0.052776849,-0.020356177,0.623521961,0.079770544,0.089392943,-0.102679255,0.948887429,0.061098495,-0.062703468,0.260115189,0.146895185,-0.065251576,-0.547597129,0.157389938,-0.109073998,0.159353829,-0.026077668,-0.01680676,0.142324885,0.302884796,-0.156443588,-0.160709475,-0.325879442,-0.801514364,0.034675196,0.092973826,-0.256323406
2.661661265,0.07752236,0.248525378,-0.124774748,-0.025094169,0.008102488,0.000499212,0.052776849,-0.048471921,0.634601659,0.024636028,0.084670046,-0.176176289,0.251311417,0.064868663,-0.063918374,0.259485196,0.151134752,-0.145751508,-0.664371255,0.145732132,-0.113797982,0.145517488,-0.027651619,0.005780176,0.150545286,-0.298881398,-0.17877816,-0.143674211,-0.293940411,-0.775673771,0.534785506,0.05421126,0.070320211
1.778046795,0.078859066,0.252761862,-0.134408008,0.00691229,0.025578738,0.019410153,0.062512012,-0.033709195,0.62878754,0.043667903,0.097675069,-0.186093809,0.24993356,0.098133338,-0.086102758,-0.837706434,0.170311796,-0.207412688,-0.529605298,0.172872818,-0.112933589,0.152819471,-0.026336723,0.003578574,0.163713477,-0.122474602,-0.232651712,-0.148210074,-0.26227797,-0.72093466,-0.36662417,0.07481286,0.015723696
0.180551494,0.055203456,0.218295038,-0.105285072,-0.040536949,0.021400096,-0.001398308,0.061021293,-0.068466371,0.614493273,0.060852073,0.085132559,-0.192269745,0.251756268,0.079492474,-0.112944832,-2.491868346,0.168234572,-0.09282424,-0.947803468,0.168102133,-0.11176388,0.149450643,0.000361897,0.039812698,0.137151537,-0.078628878,-0.242218222,-0.155450875,-0.241031381,-0.695344084,-0.364460232,-0.002979341,-0.153331211
-0.586401169,0.058746664,0.145124659,-0.100717746,-0.09698088,0.022098138,0.040918923,0.043041686,-0.039463728,0.57051085,-0.000223271,0.096635657,-0.107488039,0.24307483,0.101276452,-0.084817966,-1.161851544,0.179505892,0.016110293,-0.514486499,0.180534054,-0.105020803,0.162952104,-0.014696894,0.007179633,0.147214317,-0.032667645,-0.241009512,-0.139567454,-0.251585528,-0.707063223,0.254084178,0.091753509,0.058323608
3.070181751,0.055203456,0.278503464,-0.105824323,-0.017585087,0.013739365,0.005284704,0.02357136,-0.077919985,0.536430773,0.002938785,0.072883136,-0.109579724,0.205810045,0.098781337,-0.084792172,-0.913432256,0.183302904,-0.015131363,-0.745725137,0.17946385,-0.101750575,0.150925431,-0.012567232,-0.004342709,0.147664933,-0.174467293,-0.178083534,-0.140503198,-0.198393333,-0.735968725,0.166183465,0.07481286,-0.170425798
2.546073771,-0.011753256,0.265634114,-0.106958739,-0.151879292,0.009072775,0.037143058,0.043041686,-0.028643833,0.557874771,0.035205045,0.094764476,0.002663677,0.230298576,0.110428946,-0.071659822,-0.653318596,0.184269493,-0.01388819,-0.641166983,0.182514865,-0.109923227,0.173893437,0.005109693,0.040627713,0.1673547,-0.064465457,-0.181448303,-0.131052347,-0.198393333,-0.728910761,0.088696102,0.055431577,-0.094556036
1.707153278,-0.011753256,0.246955957,-0.100078415,-0.182400142,-0.007776864,-0.007261479,0.062512012,-0.121168443,0.611687696,-0.003518175,0.084552529,0.027922195,0.173070234,0.085817068,-0.092768732,0.041205327,0.172247311,-0.017813195,-0.627754258,0.158096224,-0.111072752,0.13763429,-0.034224003,-0.012865027,0.123285142,0.11180448,-0.225012845,-0.129818453,-0.187628456,-0.742532383,-0.542093639,0.091753509,-0.326431875
0.5311461,0.078392156,0.255918155,-0.118515212,0.012935761,0.003365252,0.013962237,0.062512012,-0.08831644,0.634714783,0.047996068,0.051774453,-0.159162205,0.17769408,0.04401,-0.090396339,-0.402611109,0.169455367,-0.024277567,-0.464391754,0.162332618,-0.102600593,0.149216225,-0.028181921,-0.010877483,0.143348587,0.125436885,-0.159161259,-0.129313546,-0.155544555,-0.733075379,0.019055273,0.052990943,-0.35230761
-0.793715113,0.032884552,0.176787353,-0.117478558,-0.119992648,-0.01747123,0.02624058,0.101452664,-0.085590217,0.62187793,0.038032583,0.069628395,-0.060802204,0.186052792,0.061464227,-0.08185087,-0.036966648,0.15670445,-0.094957095,-0.797650014,0.139074541,-0.11200556,0.141204966,-0.037379365,0.005569403,0.118352667,-0.150358809,-0.197372542,-0.142654368,-0.198182603,-0.832955992,-0.369527629,0.050550309,-0.097039938
-0.121133141,0.055203456,0.137813338,-0.112666517,0.033648646,-0.021825646,0.037597489,0.101452664,-0.089963964,0.599502677,0.061709868,0.059211129,-0.102193113,0.16288965,0.035727187,-0.125783346,-1.211181282,0.118428749,-0.177525828,-0.64731616,0.129515987,-0.127690959,0.126192609,-0.043382936,0.015089598,0.111341973,-0.265850563,-0.29944096,-0.170066167,-0.251585528,-0.809697802,-0.005320953,0.072372226,-0.223374311
2.249335302,0.10117797,0.14535768,-0.076226145,0.006852383,-0.009645571,-0.019930962,0.101915397,-0.097426517,0.71599695,0.065561315,0.100901773,-0.003494747,0.192004482,0.061660204,-0.082389543,-0.635438615,0.153004039,0.040343887,-0.510748095,0.15005046,-0.125179783,0.110049818,-0.022113297,-0.011128968,0.117867299,-0.104147073,-0.318739065,-0.167113031,-0.20915821,-0.710617405,-0.065073908,0.071151909,-0.141501684
1.138275539,0.056540162,0.188381235,-0.070519926,-0.032603248,0.001298788,0.023399274,0.092180234,-0.068382245,0.679034832,0.051378782,0.105457549,-0.023229396,0.189570356,0.073500748,-0.068079242,0.534655453,0.155785607,0.029503885,-0.360251217,0.152876777,-0.115269661,0.100006794,-0.030698872,-0.050951797,0.109470686,0.137594873,-0.120041077,-0.14960758,-0.166309432,-0.620261925,0.485040535,0.055431577,-0.441448541
3.688132842,0.056540162,0.203686622,-0.093514088,-0.013800594,0.010948555,0.025020898,0.101915397,-0.059301013,0.863903939,0.064837412,0.15017703,-0.121126099,0.216758011,0.095861368,-0.062945109,-1.174997865,0.195832676,-0.105423859,-0.390793736,0.165607813,-0.099371634,0.141417044,-0.01488675,0.012028183,0.11783637,-0.104099797,-0.166813893,-0.137061724,-0.198393333,-0.594935257,0.1507477,0.055431577,-0.101514179
2.907717323,0.034221258,0.210150789,-0.098902429,-0.122291531,0.01792145,0.038095675,0.111187827,-0.036596316,0.867639033,0.027186137,0.157885378,-0.125984016,0.227528858,0.098553253,-0.03736713,-0.347884354,0.186112261,-0.115711391,-0.726851044,0.180581906,-0.101184646,0.139904027,-0.01566733,-0.017179575,0.106564761,-0.165292905,-0.289771643,-0.137276598,-0.177074309,-0.571350121,-0.702420176,0.073592543,-0.007198975
1.083603948,0.032884552,0.236503341,-0.069325182,0.024653956,0.021692568,0.048219993,0.101915397,-0.010602977,1.017526382,0.0382642,0.18168971,-0.119548452,0.208351177,0.086745095,-0.086255888,-1.469942105,0.182740972,-0.065421412,-0.873944536,0.176818429,-0.091751833,0.140343597,0.008891993,0.009838389,0.118543773,-0.149514304,-0.338513012,-0.145410807,-0.20915821,-0.57226401,-0.240213699,0.075024884,-0.115138585
1.206730198,0.078859066,0.220602215,-0.055611261,-0.119992648,0.018971798,0.033025417,0.091717501,-0.012970709,1.066220229,0.019449616,0.224022078,-0.027999142,0.183254093,0.122350242,-0.08783818,-0.213828063,0.190156283,-0.091463737,-0.705808241,0.205430745,-0.089230482,0.136692756,0.024870476,0.020983928,0.136247186,-0.131461234,-0.22536011,-0.121939559,-0.198393333,-0.473600185,-1.353082256,0.07481286,-0.276485974
0.842350178,0.055203456,0.200324889,-0.082928778,0.126188334,-0.003803953,0.02737012,0.043041686,-0.013246625,0.969132764,0.000423903,0.190348399,-0.060500869,1.36404566,0.072397408,-0.092724306,0.078900855,0.14482957,-0.151083372,-0.505698885,0.138194234,-0.090680546,0.12685986,-0.012421607,-0.005359871,0.13177234,0.013872109,-0.167582627,-0.113983223,-0.166098702,-0.55381496,0.42348968,0.072372226,-0.271292269
1.448592376,-0.008676958,0.203055558,-0.094306169,-0.106788843,-0.003360731,0.035661839,0.02357136,0.01157776,0.908236588,0.023877985,0.197760329,-0.152291517,0.129407728,0.058743925,-0.127625749,-0.231528561,0.139323671,-0.121955748,-0.571370526,0.148272269,-0.105127478,0.120239227,-0.001253094,0.021513061,0.117461269,-0.196892219,-0.15789218,-0.11651413,-0.166309432,-0.560819142,0.266919253,0.050550309,-0.081673646
3.83743348,0.055203456,0.127043109,-0.074622334,-0.091830589,-0.007248742,-0.012079143,0.05128613,-0.014814399,0.956882291,0.02709599,0.216682548,-0.189753195,0.12279787,0.059115129,-0.13711904,-1.197458082,0.136867142,-0.130152383,-0.695225533,0.143675311,-0.108905792,0.111033048,0.00081837,-0.008811842,0.136453081,-0.158268738,-0.225768422,-0.10984493,-0.111915092,-0.476008407,0.140304328,0.07481286,-0.112783082
1.759059932,-0.01088346,0.171451782,-0.110877295,-0.004441191,-0.008934268,0.020667433,-0.071559451,0.020450135,0.796841258,-0.023829362,0.191414822,-0.196755895,0.041394887,0.040074809,-0.17943685,-0.487379122,0.124151697,-0.074196943,-0.403865828,0.105192839,-0.11259032,0.09431573,0.003092809,0.008325865,0.124024543,0.222217085,-0.122121788,-0.099085548,-0.078480551,-0.45621821,0.264893318,0.015448694,-0.374043056
-0.002332369,0.011435444,0.117701781,-0.138069,-0.076327903,-0.022233047,0.03560634,0.014010959,0.066222905,0.84302829,-0.013120863,0.20540238,-0.136712671,0.720230792,0.019100706,-0.188925104,-0.345061458,0.095799385,-0.094766547,-0.539373669,0.077254628,-0.106644977,0.093443299,-0.022560792,-0.024964293,0.110078342,0.031379369,-0.200351836,-0.104106855,-0.077910596,-0.469876751,0.397136474,0.034829977,-0.240550579
-0.758934192,0.032884552,0.131369027,-0.109372539,-0.048105936,-0.030940969,-0.001309691,0.041550967,0.003498614,0.867004174,-0.013013783,0.230976252,-0.152441373,1.191863936,0.035536184,-0.187177827,-1.777147363,0.101693095,-0.206745129,-0.528641389,0.108605009,-0.11596327,0.090222952,-0.005205564,0.012968347,0.135117788,-0.266224788,-0.130492079,-0.09203961,-0.078480551,-0.455549827,-1.380018312,0.091753509,-0.278549373
-0.509240357,0.079728862,0.097888882,-0.119714168,0.006792476,-0.024844748,0.026425788,0.02357136,0.069597271,0.874317496,0.008486694,0.250789511,-0.069883224,0.728547799,0.027413582,-0.152426363,-0.027746257,0.098037162,-0.04568481,-0.557003089,0.110531844,-0.111049623,0.085930272,0.019101905,0.022224212,0.09210523,0.044783902,-0.267017172,-0.108717402,-0.033711178,-0.413272366,-0.262369863,0.073592543,-0.221703481
0.036733213,0.07752236,0.112355653,-0.131376479,0.008218179,-0.043685799,-0.058644463,-0.016952634,-0.014126158,0.645123364,0.019710787,0.218883042,-0.095659195,0.028188871,0.032842534,-0.170877094,0.023059637,0.108103432,-0.122541629,-0.501217385,0.099721922,-0.118925083,0.092790912,-0.009629616,-0.050962452,0.103409023,0.105289591,-0.207583854,-0.106404803,-0.111345137,-0.278133164,-0.576990988,0.07481286,-0.205767153
2.598653932,-0.030126066,0.097049443,-0.128380388,-0.08147819,-0.037793825,-0.013659965,-0.024230645,0.021261204,0.807453287,-0.014024992,0.277557881,-0.094190819,0.038096741,0.070267791,-0.136083727,-0.186923828,0.136218368,-0.009629746,-0.430236774,0.123558865,-0.108366479,0.081731562,-0.013262177,-0.066756466,0.107616178,0.139435685,-0.191880055,-0.099376725,-0.134014801,-0.128001841,0.003273591,0.016669011,-0.134461889
4.330421718,0.034624144,0.115626371,-0.088747832,0.008218178,-0.039306607,-0.015517887,0.004450558,0.023047334,0.910227972,0.025259539,0.299900676,-0.113702084,0.085612303,0.062063316,-0.1254713,-1.452046242,0.155956869,-0.081931472,-0.443478928,0.164967988,-0.099115139,0.093260816,0.01283088,-0.064731528,0.086425161,0.202442402,-0.181032727,-0.10166665,-0.090385338,-0.026334002,-0.704894671,0.07481286,-0.157516948
0.746581991,0.010565648,0.207152791,-0.07808882,-0.058406515,-0.039952847,-0.059569642,0.02357136,0.000713859,1.127041375,0.016661121,0.350400032,-0.162982855,0.121050734,0.081561459,-0.07834475,-0.633441343,0.148672074,-0.204261627,-0.651591447,0.163383075,-0.083734122,0.09491825,0.03179033,-0.046109079,0.08880271,-0.053496172,-0.243527624,-0.112464919,-0.144209723,-0.05642803,-2.424950177,0.055431577,-0.067339213
1.616686539,0.055203456,0.202627597,-0.077286038,-0.078626788,-0.03921733,-0.012467602,-0.005109843,0.053348103,1.314148284,0.024204076,0.392642611,0.07989139,1.020307273,0.103864362,-0.099051922,-0.327617854,0.164656587,-0.084925573,-0.34326054,0.174898335,-0.0485738,0.124988159,0.074212866,0.005911334,0.078249989,0.131196303,-0.232392032,-0.107356938,-0.122110014,-0.003261811,0.23325048,0.073592543,0.062654953
1.542984748,0.032884552,0.276728098,-0.083388022,-0.046680235,-0.045545262,-0.031664744,0.012869764,0.045076073,1.315741706,0.026514668,0.359904295,-0.043738929,1.023579313,0.096391373,-0.083919568,-0.319143035,0.159912799,-0.016468852,-0.578884947,0.179880561,-0.043868077,0.124299758,0.044078608,-0.028202741,0.105626809,-0.001422613,-0.189731581,-0.111856919,-0.123249924,0.010081535,0.040599346,0.036526918,-0.115870616
1.095263622,0.056540162,0.163208586,-0.065387429,0.0045535,-0.028408479,0.000716615,0.030849371,0.15985085,1.315258859,0.0471373,0.318863091,-0.053973043,0.783559967,0.047785162,-0.096980173,-0.308108949,0.116807923,-0.053098817,-0.338456344,0.127619176,-0.055062558,0.10889789,0.059209581,0.018977416,0.109631049,0.085774194,-0.079790348,-0.107870274,-0.133444846,0.044098762,0.292848394,0.055431577,-0.15864802
-0.541879604,0.032884552,0.174387587,-0.061446397,-0.055555109,-0.022599292,-0.008977908,-0.006251038,0.123665931,1.259544624,0.049497327,0.325563481,-0.068189248,0.089839397,0.055121627,-0.112675443,-0.390589968,0.122091223,-0.054441201,-0.493507509,0.163625136,-0.049743262,0.124584394,0.036435315,-0.008602029,0.125601016,-0.049630565,-0.190092526,-0.102150859,-0.067145719,0.096920896,-0.723873893,0.092973826,0.064927694
2.129859398,0.010565648,0.191356244,-0.084500496,-0.027885664,-0.04049338,-0.01199977,0.010587374,0.064836621,1.038954478,0.052439324,0.268054135,-0.139955177,0.04648407,0.031435715,-0.128296699,0.164568762,0.104171933,-0.072204383,-0.500775232,0.101794583,-0.065574702,0.090515478,0.021347705,-0.018942095,0.126881047,0.294355515,-0.130275356,-0.098468647,-0.033711178,0.166203013,0.481621773,0.07481286,-0.188407251
1.90707543,0.010565648,0.168323862,-0.083155141,-0.049471732,-0.048575788,0.010214689,-0.052911848,0.084991241,0.798952234,-0.047889322,0.266158023,0.126244986,0.056121191,0.05505406,-0.126954065,0.117188609,0.107469264,-0.091296276,-0.272931431,0.117794024,-0.058479966,0.093388314,0.019288,-0.00509353,0.111279624,0.33136264,-0.128029476,-0.103367487,-0.056380842,0.152372828,-0.849223535,0.092973826,0.008115446
1.698640145,0.032884552,0.138392044,-0.081154885,0.046792542,-0.05081747,-0.001900432,-0.014670244,0.053932604,0.693130476,0.009675606,0.260263249,0.117540744,1.254395143,0.046540107,-0.100987402,0.67326121,0.099843598,0.108721812,-0.46779996,0.109939788,-0.060428916,0.068714781,0.004716036,-0.029334495,0.102326159,0.521906351,-0.113425817,-0.104270963,-0.011299604,0.146295555,0.970774262,0.07481286,-0.049097203
2.317484918,0.010565648,0.168394375,-0.068688339,-0.02503426,-0.042700735,0.012107081,0.02357136,0.01890654,0.672302471,0.012846538,0.265698995,-0.053163892,0.769639807,0.058939066,-0.074966175,0.572178872,0.123464688,0.04131562,-0.769408369,0.136233049,-0.043949158,0.099600852,0.031778163,0.002778754,0.099434801,-0.022180079,-0.139274109,-0.107926212,0.033910679,0.12483577,0.923350445,0.094406167,0.015061349
1.223554391,0.07752236,0.139591668,-0.072125562,0.202732718,-0.056571659,0.00460221,0.041550967,0.012019695,0.54396596,0.025162963,0.230124192,-0.0504752,0.065800922,0.047341838,-0.112207944,-0.190854193,0.104070864,-0.173786104,-0.500057623,0.118111236,-0.042193852,0.101727775,0.025764816,0.029022726,0.124504718,-0.071582218,-0.123407214,-0.090530263,0.06752804,0.040910198,0.25236305,0.092973826,0.193022545
0.456253137,0.056540162,0.08646086,-0.086225844,0.008337993,-0.069123653,-0.016090579,-0.016952634,0.000619553,0.438054019,0.010465761,0.205427692,0.065075016,0.720705001,0.030298718,-0.137473131,0.467050746,0.089630209,0.077010897,-0.425670886,0.096178661,-0.040044896,0.084347035,-0.013728341,-0.044177629,0.092634203,0.139997328,-0.112209902,-0.099547865,0.056322253,0.173986533,0.400988728,0.092973826,-0.297051616
-0.101849061,-0.054651472,0.103865016,-0.091081989,-0.082784078,-0.064168308,0.00461595,0.02357136,-0.027946635,0.493456039,-0.006471356,0.237090924,0.020697266,0.770941612,0.04927616,-0.070802469,0.494761015,0.100249261,-0.071251823,-0.502830419,0.124279161,-0.029684066,0.116107924,0.032208433,0.030098347,0.105013885,-0.182411557,-0.169624139,-0.102307281,0.078862872,0.168352193,1.053766383,0.07481286,0.44515841
2.286126516,0.010565648,0.103407888,-0.084256134,-0.027885665,-0.069565108,0.040336694,0.02357136,0.009212861,0.492640697,0.008279508,0.223161891,-0.044258195,1.121341974,0.025863386,-0.101600073,-0.494646467,0.099913669,-0.060309779,-0.346209216,0.100915943,-0.033512261,0.090796504,0.031151136,0.014621473,0.112392484,0.102779266,-0.114760062,-0.099319874,0.090681301,0.136846551,-0.323999453,0.092973826,-0.111556325
1.378044085,0.055203456,0.091521548,-0.109501858,0.079672183,-0.086442456,-0.077005166,0.022430165,-0.043603505,0.35627807,0.023099737,0.178048734,-0.111733239,0.046196095,-0.001479644,-0.124346523,-1.404658451,0.101475925,0.019387855,-0.280690294,0.103787762,-0.048385844,0.087014535,0.007729119,0.020024744,0.109188262,0.066403883,-0.123176305,-0.103242199,0.045245511,0.077460031,-0.710830926,0.055431577,0.069034711
0.319913815,-0.009143868,0.083799916,-0.13816299,0.098959365,-0.073409775,-0.046969896,-0.092999337,-0.037500329,0.255089146,0.009470337,0.163363227,-0.047737372,0.023273966,0.027491047,-0.096239413,0.262715327,0.0752497,0.005773103,-0.122819163,0.076394877,-0.051192663,0.075475028,0.005082537,0.011964248,0.087502752,0.238755632,-0.175999229,-0.097126804,0.01137006,0.088264422,0.597375809,0.090533192,0.0656216
-0.450377179,-0.031462772,0.098039275,-0.104826628,0.052935828,-0.058117094,-0.027162924,-0.044492642,-0.065844174,0.373048282,-0.009236717,0.186563358,0.001899611,0.723287461,0.034157549,-0.10605657,0.299983639,0.090486856,0.072248642,-0.462614955,0.086473171,-0.050695,0.065829963,-0.009009006,-0.023329518,0.091965633,-0.0216618,-0.114874308,-0.100142795,0.033910679,0.113134284,0.165652871,0.073592543,0.033482852
3.492414233,0.01230524,0.085318457,-0.116721786,0.073528896,-0.05535609,-0.004257249,-0.033791046,-0.031721438,0.234937688,-0.007377799,0.181181099,-0.013114322,0.040404731,0.025399335,-0.093149594,0.436654476,0.089758134,0.139204369,-0.167581972,0.071069755,-0.06396774,0.030297213,-0.019809402,-0.056444013,0.07854615,0.24785081,-0.032241438,-0.092728871,-0.033711178,0.313624179,0.053076691,0.055431577,-0.250315678
0.410110295,-0.031462772,0.051960646,-0.123066795,0.026139565,-0.065418669,-0.051991915,-0.036073436,-0.077567943,0.337733132,-0.027338411,0.199808883,0.052644645,0.011006819,0.022879108,-0.109570378,0.170425947,0.078294079,0.041973964,-0.130930559,0.038384744,-0.058815181,0.046207223,-0.021621164,-0.013731195,0.089132875,0.242839124,-0.165317587,-0.097346052,-0.122679969,0.352895872,0.074335591,0.092973826,0.191101245
2.149166885,-0.098419484,0.07825871,-0.117391273,-0.086568572,-0.061053886,-0.060914524,-0.062472249,-0.078976461,0.363415334,-0.026494435,0.183967415,0.032988938,-0.015422703,0.001195731,-0.145539325,-0.144279401,0.071723204,0.020061912,-0.273148986,0.063751088,-0.055268584,0.049101002,-0.009683397,-0.020040044,0.104777859,0.19810138,-0.116816522,-0.092709366,-0.144779678,0.342561221,-0.488336137,0.055431577,-0.078962422
3.707809996,-0.054651472,0.074517303,-0.109289504,-0.075274998,-0.052092937,-0.043465772,-0.054053043,-0.076569037,0.40433895,-0.017870693,0.193437614,-0.082806128,0.008923124,0.005722096,-0.11070208,0.06667763,0.071439069,-0.069511186,-0.298590552,0.055753647,-0.040228524,0.054640463,0.016638388,0.007719809,0.070623565,0.142596545,-0.239753327,-0.106014619,-0.111134407,0.368280456,0.507843349,0.034829977,-0.088305479
2.260114953,0.032884552,0.053196528,-0.110969777,0.054301622,-0.061951695,-0.070124535,-0.026513035,-0.09081842,0.401060214,-0.002098875,0.198698045,0.046314345,0.001601552,0.026025949,-0.111062026,0.004709359,0.081826903,0.035073272,-0.122147529,0.064646105,-0.038404742,0.059526898,0.020009929,0.025829582,0.099968425,0.198094865,-0.043933917,-0.080643916,-0.0446051,0.242325325,-0.164006356,0.036050294,0.012534641
3.357847382,-0.01088346,0.066961237,-0.137586092,0.081097886,-0.080864789,-0.051193246,-0.036073436,-0.088393019,0.288341022,0.008979165,0.16025977,-0.064663042,-0.018467575,0.003653395,-0.137216317,-0.219863233,0.060299985,-0.038945042,-0.175491531,0.029049772,-0.050671874,0.075514934,0.000128552,0.019059012,0.089987396,-0.135843458,-0.092847257,-0.085412313,-0.077910596,0.181305474,-0.629039265,0.036050294,0.021842406
0.72670469,-0.1413177,0.012908873,-0.157424524,-0.173957971,-0.092911234,-0.052695357,-0.036073436,-0.10746286,0.310797388,-0.019158911,0.145983558,0.026491654,-0.082868632,-0.004671201,-0.164672999,0.314804225,0.058012032,0.09901799,0.1166164,0.027389704,-0.056795232,0.036789652,-0.035368053,-0.060500053,0.09735416,0.335767022,-0.085968609,-0.081212333,-0.067715674,0.112176889,0.341464573,-0.002235648,-0.263266287
0.320224619,-0.031462772,0.015816,-0.121203567,0.169420375,-0.084995525,-0.076268997,-0.008533428,-0.112128827,0.41811757,-0.014647842,0.155567418,-0.083516078,0.651181559,-0.024224602,-0.164911371,-0.765309374,0.06347457,-0.051207232,-0.203257026,0.036700204,-0.042115137,0.058527316,-0.000128756,0.010533017,0.089392921,0.042837905,-0.161521692,-0.081746705,-0.078480551,0.13034772,-0.386688923,0.016669011,0.014306223
0.485833613,-0.01088346,0.049485896,-0.116351637,-0.073909204,-0.094539894,-0.036677647,-0.02537184,-0.076254921,0.575320027,-0.004703234,0.183458662,-0.066903006,-0.023316952,-0.013207146,-0.129711145,0.163742803,0.057952862,-0.067287435,-0.177925158,0.033415021,-0.044790599,0.042909926,-0.00642491,-0.010704494,0.092067643,-0.005727389,-0.096472461,-0.075515844,-0.056380842,0.111549048,0.845113125,0.07481286,0.040906504
0.515984425,-0.05291188,-0.031115531,-0.104577417,0.077313391,-0.098691099,-0.015357665,0.048828978,-0.061551145,0.653237069,-0.029159439,0.184003571,-0.017638311,-0.012183652,0.015350104,-0.104656887,0.733530051,0.074321918,0.175419429,0.06168728,0.030743533,-0.034034342,0.04637266,0.013051726,0.015423381,0.079202575,0.305268747,-0.128442617,-0.083567285,-0.144779678,0.231307663,0.557470393,0.036050294,0.07985038
1.940304636,0.011435444,0.009277118,-0.122191593,0.05436153,-0.118063556,-0.062115093,-0.02537184,-0.082483258,0.749939798,-0.036068927,0.161727964,-0.040863267,-0.026771741,0.006402169,-0.127862523,-1.038524211,0.085076326,0.066614736,-0.125283366,0.037255817,-0.05286658,0.025734076,-0.007181322,0.015696417,0.070524905,0.257936526,-0.097651391,-0.083341535,-0.166309432,0.168225067,-0.021496538,0.036050294,0.241360779
-0.548375778,0.033754348,-0.043616278,-0.143941685,0.058026209,-0.133525671,-0.048389029,0.02128897,-0.080456428,0.829368538,-0.013706871,0.156709608,-0.01536959,-0.052970831,-0.005760505,-0.134360381,0.123288465,0.06542554,0.095905167,-0.027223893,0.016825692,-0.053888432,0.012387275,-0.042739105,-0.042037247,0.052825929,-0.020175076,-0.038025608,-0.092005921,-0.241031381,0.211860106,0.020885104,-0.023313872,0.040864534
1.276152206,-0.076970376,0.00885242,-0.095492,-0.184758933,-0.116786037,-0.063293001,0.023746122,-0.075561923,0.960494417,-0.046871026,0.18244924,-0.065151405,-0.000604045,-0.009104054,-0.112074819,-0.347967344,0.05263547,0.043045507,-0.212183225,0.042425574,-0.063775899,0.029260638,-0.029611687,-0.0355364,0.040141333,-0.001918748,-0.077813723,-0.098572191,-0.166098702,0.147481263,-0.242359496,-0.041474838,0.156661387
0.776089195,0.010565648,0.038424628,-0.056679883,-0.098346673,-0.092046799,5.958E-06,0.043041686,-0.072183291,1.173212017,-0.020765975,0.245571704,0.078420356,0.090878821,0.031156994,-0.012186732,-0.634736094,0.091042874,-0.039194764,-0.175632229,0.082953945,-0.049143478,0.022254239,0.025507734,0.014859386,0.056310337,-0.146431869,-0.118131953,-0.092657031,-0.078480551,0.135387104,-0.733749895,0.016669011,0.232507593
-0.522309016,-0.011753256,0.040249939,-0.050121667,-0.054622021,-0.101496392,-0.030232394,0.014185721,-0.050564542,1.055898113,0.015270699,0.222123881,0.005908487,1.878130918,0.006622818,-0.034357828,0.297032244,0.078870148,0.018675309,0.085360079,0.042495974,-0.031420053,0.053477205,-0.008976903,0.002396336,0.043782411,0.041033861,-0.157969824,-0.064627667,-0.067145719,0.188295066,-0.162280475,0.055431577,0.070828313
1.685262851,0.055203456,0.078003028,-0.038024094,0.001702094,-0.087662936,-0.033384171,0.014010959,-0.066430855,1.053265214,0.02741452,0.232177998,0.031496393,0.944404064,0.02959696,-0.068685881,-0.223322917,0.070824835,0.081586271,-0.147856228,0.055586193,-0.024048743,0.053128453,0.005164109,-0.000227999,0.090231671,0.078640471,-0.043977806,-0.055300468,-0.067145719,0.352697182,0.519909898,0.055431577,0.272304384
4.904042983,0.034221258,0.089351847,-0.014554715,-0.032603249,-0.0612638,0.020128872,0.059530574,-0.00966294,1.056713308,0.016978495,0.201300886,-0.045765247,0.761649293,0.010654121,-0.030592731,-0.98928181,0.09419938,-0.042817688,-0.337991955,0.082468985,-0.002628391,0.047613644,0.0322877,0.004818754,0.0716217,0.04102347,-0.108214389,-0.075121777,-0.056380842,0.394646377,-0.278015647,0.016669011,0.21998283
0.54782772,0.032884552,0.087353216,0.012538892,0.051510126,-0.043024737,0.010434224,-0.014670244,-0.014239635,1.055784494,-0.015104579,0.233858559,-0.048483458,1.006680954,0.043882857,0.004416001,2.6102E-05,0.118140491,0.130210495,-0.125721761,0.098566451,0.024729935,0.07407079,0.074260941,0.032599414,0.07994707,0.1606679,-0.154166367,-0.061313813,-0.011170559,0.499577204,0.643280292,0.055431577,0.206297946
1.876426244,0.032884552,0.180721669,0.000669841,-0.057040718,-0.023625504,0.010455503,-0.061683399,-0.009428886,0.962133891,-0.013558815,0.218675528,-0.014589774,0.765653652,0.060887288,-0.034562389,-1.008174035,0.12764752,0.08266353,-0.268082391,0.089971858,0.019835363,0.072215751,0.068110186,0.043497045,0.10348065,-0.129111798,0.001010235,-0.036385739,0.113092875,0.543633753,0.094376569,0.094406167,0.083867378
1.66901602,0.099841264,0.184641409,-0.024336849,0.086248175,-0.023164537,0.033350656,0.018023118,0.039333666,0.871303024,0.02349879,0.177924197,-0.017749658,0.034825779,0.020993059,-0.064094526,-0.712363015,0.061926348,-0.168192859,-0.24709535,0.022986268,0.006245827,0.062272712,0.047311434,0.023947942,0.07665436,-0.305217589,-0.101054229,-0.038283063,0.136729733,0.478132174,-0.218712704,0.055431577,0.156857935
1.143702314,0.032884552,0.037079402,-0.006496216,-0.151506492,-0.018912482,0.035224951,0.040409772,0.049951653,0.889695198,0.004632129,0.192364153,-0.050879126,-0.020089964,-0.013737279,-0.0788359,0.518026124,0.041116606,0.025025803,-0.260580478,0.016863742,-0.018222383,0.011669042,0.017173472,-0.028156144,0.061316412,-0.090281319,-0.077115838,-0.044791288,0.194596594,0.43042297,-0.512652159,0.09318585,-0.089978858
0.166767281,0.056540162,0.132279904,-0.023573535,-0.02509417,0.003603627,0.027727076,0.011728569,0.08677034,0.847184903,-0.036551753,0.202377767,0.046653267,-0.042145524,-0.004878087,-0.068051318,0.434201664,0.033686847,-0.050187468,-0.254216213,0.030879781,-0.028539318,0.018343031,0.044447384,0.011602185,0.034418197,-0.117115763,-0.113362154,-0.055515161,0.241612564,0.384997756,-0.550772719,0.036526918,-0.068243835
-0.800042216,-0.011753256,0.060204311,-0.05568585,-0.059772309,0.001749015,0.037219263,0.009603912,0.060554871,0.632965893,-0.007027502,0.155824083,-0.035987283,-0.076037294,-0.024639353,-0.133623914,-0.238513958,0.012379151,-0.01107452,-0.045448061,-0.018845509,-0.039176232,-0.004980021,0.024697493,0.009472474,0.02679461,-0.241237331,-0.090639571,-0.048969523,0.230051881,0.430203655,0.169405534,0.016669011,-0.038007665
-0.555591832,-0.009143868,0.018458604,-0.084939421,-0.045314437,0.009731219,0.036828622,-0.054053043,0.096800763,0.50404588,-0.004320054,0.118583164,-0.004256901,-0.097362624,-0.046841921,-0.131928816,-0.219364141,-0.025080563,0.046249064,-0.047485013,-0.055810156,-0.075039669,-0.028160793,0.010088099,0.032838794,0.062460241,-0.131328565,-0.017900356,-0.046111536,0.206415023,0.390282587,-0.382015752,0.05421126,0.019368469
0.561519862,-0.07610058,0.031300718,-0.067469527,-0.037753537,0.038440221,0.037019559,-0.018093829,0.059387262,0.5326278,-0.026393995,0.153990849,0.014881635,0.617140138,-0.0188137,-0.106110246,-0.58720325,-0.006042837,-0.030150383,-0.054809036,-0.024234386,-0.046866978,-0.027462651,0.002524299,-0.010760046,0.04047984,-0.603081056,-0.035765684,-0.04571719,0.265120549,0.47246686,-0.369462027,0.090533192,0.111406655
0.33800793,-0.055521268,0.034716358,-0.046190397,-0.15702958,0.041620628,-0.003466098,-0.07203265,0.026764398,0.564509296,-0.017815081,0.147495994,0.041029095,-0.074422544,-0.018704586,-0.08547041,0.818310523,0.016385738,0.132775402,0.118176994,-6.5916E-05,-0.053545692,-0.011747804,0.047679995,0.043402455,0.052792741,0.198995963,0.035416188,-0.046663519,0.300189217,0.4412377,0.671971045,0.094406167,0.108529174
1.871726188,0.032884552,0.054296022,-0.039276719,-0.097913968,0.056878448,0.028978946,-0.036073436,0.073509598,0.581613639,-0.011485177,0.154515726,-0.130749586,-0.038042423,-0.018305868,-0.107398112,-0.391738506,0.020345054,0.035621516,0.009921338,0.000245301,-0.034838917,0.006148803,0.04065762,0.047920496,0.052210715,-0.107963707,-0.081295117,-0.038841364,0.288628534,0.443967668,0.100220356,0.055431577,0.124579309
1.319983746,-0.033202364,0.007238985,-0.015593924,-0.182519955,0.067470898,-0.009479619,-0.008533428,0.029224502,0.619491462,-0.011487692,0.178762934,-0.02074296,-0.014090167,0.017100193,-0.06613624,-0.53331111,0.026580602,-0.059667022,-0.328563399,-0.00311838,-0.04748717,-0.025174795,0.044900969,0.017760485,0.036724785,-0.116372246,-0.177570526,-0.047016688,0.30031809,0.409642301,-0.080845777,0.075024884,0.002721498
1.24749901,0.032884552,0.072811584,0.012994302,-0.058466422,0.081102681,-0.000546487,-0.000114222,0.012964343,0.62456573,0.019172216,0.233340205,0.003243681,0.030171512,0.046086113,-0.040599422,-0.294629532,0.056671116,0.070476262,-0.280186215,0.058504498,0.001863182,0.019258309,0.085959622,0.050354153,0.031621154,-0.19416714,-0.055522093,-0.047860695,0.312007646,0.436120434,-0.381751404,0.092973826,0.06244794
1.014417565,-0.011753256,0.168005658,0.028668406,-0.088987268,0.095315161,0.028962502,-0.010342619,0.086659577,0.622983947,0.000756095,0.206322417,-0.122920568,1.239485958,0.017747783,-0.061221336,-0.047691368,0.03586451,-0.139084739,-0.239236214,0.012542335,0.002703932,0.013902307,0.08832429,0.051005855,0.051076165,-0.153937813,-0.033145408,-0.04701714,0.323697202,0.502304997,-0.246742732,0.092973826,0.006768788
1.871044056,0.032884552,0.098981587,0.000712627,-0.028878662,0.085331511,0.010251391,-0.076161295,0.050499479,0.60995877,-0.005054843,0.213770811,-0.030466605,-0.002732257,0.051205679,-0.06003398,-0.480322707,0.051537734,-0.138382447,-0.427469593,0.040240162,0.021024988,0.030617081,0.095620714,0.054880766,0.047919441,-0.023225505,-0.05455909,-0.049723624,0.30031809,0.564109365,-0.92372079,0.07481286,0.116452305
0.024298243,0.01230524,0.122243263,0.002363001,0.020056188,0.072424099,-0.01788842,-0.041221867,0.020588006,0.466136874,-0.007517219,0.167253564,-0.059077197,-0.01043578,0.01446815,-0.052276471,-0.389900686,0.048314312,-0.017638983,-0.081582229,0.034010567,0.020918363,0.034574845,0.095286793,0.050688721,0.014694866,-0.097539261,-0.156374272,-0.06070838,0.218104579,0.669457859,0.158294647,0.091753509,0.051377693
-1.061463325,0.033754348,0.077017058,-0.004988958,0.02514657,0.063613933,0.028147342,-0.094140902,0.005912299,0.463391456,-0.02971337,0.161818988,-0.000272872,-0.034877371,0.008057019,-0.070680776,-0.631596832,0.031670644,0.080509636,0.071169063,-0.002585352,0.006405263,0.033748969,0.077947106,0.031256554,0.045526794,0.093318696,-0.045705591,-0.048769903,0.206415023,0.656787346,0.35587484,0.094406167,0.079967705
0.506230829,0.056073252,0.157024074,0.018108002,-0.028818753,0.082223975,-0.000166854,-0.058181688,0.006149201,0.543999432,-0.047727057,0.206600372,0.026497581,0.923693243,0.054994652,-0.038972481,-0.201544709,0.078082647,-0.051803465,-0.287155308,0.078044756,0.024814807,0.022630076,0.119783937,0.064859856,0.001397926,0.10603439,-0.068351143,-0.057514172,0.276810105,0.775192927,-0.162297867,0.075501507,-0.030121457
-0.320252941,0.078859066,0.020745738,0.015144865,-0.026087164,0.05717608,-0.020866803,-0.085406045,-0.049114283,0.502360309,-0.003044498,0.15603995,-0.099972165,0.92852637,0.023565653,-0.049731707,0.023928714,0.068239891,-0.202662886,-0.282049398,0.041875195,0.023985112,0.033823385,0.112925888,0.083248562,0.022103334,-0.160920375,-0.159695061,-0.061610084,0.229923008,0.725931591,0.061833006,0.091753509,-0.267852821
2.526228548,-0.011753256,0.217799654,-0.001211602,-0.183885751,0.036156131,0.014733013,-0.094650795,-0.009842168,0.438438764,-0.058534681,0.164944832,0.046050769,2.23215423,0.037620625,-0.035923883,0.172002005,0.056337642,0.067480663,-0.050871476,0.055922105,0.028392998,0.006302651,0.077748103,0.025331738,0.004345232,0.073949851,0.063876903,-0.043464947,0.170959736,0.69815632,-0.239123965,0.05421126,0.030880126
0.666446733,0.056073252,0.118115566,0.022241173,-0.057040719,0.025706226,-0.038847765,-0.029973684,-0.060366871,0.529011448,-0.033266771,0.172729731,0.161779456,0.892231823,0.028066312,-0.05204533,0.605800462,0.050295107,-0.094885504,-0.17045038,0.056219338,0.035864979,0.032540663,0.098268333,0.05502805,0.024488534,0.141900236,0.030606035,-0.037888274,0.159753949,0.684168839,0.195908388,0.07481286,0.0757745
1.882687879,0.055203456,0.114143868,0.015748599,0.023720866,0.034530248,-0.013659866,-0.084738234,-0.04660767,0.635219438,0.00105676,0.203965858,0.117222251,0.002113306,0.051439335,-0.033365826,-0.17145382,0.081675123,-0.069277496,-0.286873961,0.083511941,0.062240745,0.028672795,0.097669607,0.017150026,0.018124066,-0.004790707,0.035115412,-0.037544947,0.182778165,0.771097207,-0.630452221,0.07481286,-0.244791323
2.953811599,0.10117797,0.079099345,0.036246854,0.073528898,0.016244781,-0.044711411,-0.112120509,-0.0718064,0.67700116,0.001585525,0.219485412,-0.039435874,-0.011327787,0.065737684,-0.063086037,-1.033999379,0.091426169,-0.018989844,-0.375503258,0.090396637,0.046713276,-0.000414568,0.09352261,0.002064352,0.008601865,0.000617332,0.050603682,-0.045121006,0.113705517,0.78253216,-1.037852851,0.112567133,-0.410809035
1.151412613,-0.01088346,0.065418299,0.01803721,-0.109207541,0.004488976,-0.007908926,-0.047953291,-0.072073776,0.692125845,-0.005411415,0.190199133,-0.128381925,0.001440669,0.04825759,-0.051523529,-1.176990467,0.095372127,-0.074251652,-0.471514926,0.097195156,0.02513058,-0.026169565,0.078446948,-0.036004386,-0.008280389,-0.14227156,-0.034362374,-0.056041224,0.078862872,0.844703031,-1.3897246,0.092973826,-0.259199334
3.212520504,0.10117797,0.154897857,0.038779377,0.051882924,0.022098808,-0.015383208,-0.036899165,-0.050453557,0.937875373,0.016650079,0.265155326,-0.024407803,0.027435779,0.087289058,-0.032037757,-0.901824445,0.104691466,0.002370816,-0.252743422,0.123619,0.06582855,0.006243619,0.118237752,0.020116531,0.014800542,0.123412398,0.008202837,-0.042460547,0.079475514,0.839275396,-0.946282891,0.113999474,-0.307912766
1.236247683,0.056540162,0.158985256,0.053305257,-0.126016118,0.038334637,-0.004966753,-0.018093829,-0.000810777,1.202903833,0.015804223,0.326241487,0.000678222,0.754454861,0.131374621,0.022401706,0.053159145,0.156534717,0.097791532,-0.253394222,0.150372281,0.094333806,0.030016055,0.124918293,0.010023135,0.028217507,-0.140360532,0.037123887,-0.037878128,0.045245511,0.754079515,-0.194251627,0.07481286,-0.310732206
2.231770967,0.123496874,0.283114552,0.094754024,0.017204782,0.046150423,0.028914911,-0.000939951,0.035505461,1.310489415,-0.015140173,0.347508001,-0.028646983,0.099221595,0.158727219,0.044152783,-0.586258661,0.168326435,-0.0450115,-0.372265302,0.169637646,0.109245451,0.054275142,0.161967302,0.059351214,0.026969706,-0.074337197,-0.082233429,-0.044793114,-0.022376346,0.723574846,-0.047396016,0.13216044,0.033581198
0.60489149,-0.01088346,0.156511214,0.042096228,-0.233693783,0.051738576,0.05674916,-0.037724894,0.092867177,1.317908156,0.030368357,0.340714848,-0.044978497,0.124937684,0.170714527,0.056859235,-1.917465418,0.15775039,0.038962638,-0.563875867,0.168204836,0.113338803,0.051732152,0.15711293,0.071910593,0.021999485,-0.469768213,-0.096515497,-0.044386824,-0.079050506,0.649860705,-0.049687533,0.07481286,0.032154889
2.403672006,0.032884552,0.281318101,0.054546247,-0.058406514,0.039855546,-0.008313205,0.015388198,0.01776586,1.29376055,0.015939548,0.309412609,0.099399597,0.071659814,0.129005889,0.023090518,-0.437446879,0.11805779,-0.094966804,-0.215749795,0.127602524,0.087649032,0.027880202,0.135838559,0.02706829,0.027044004,0.144906374,0.059365814,-0.046352975,-0.144779678,0.586169142,0.3800266,0.07481286,0.154222092
-1.69452087,-0.033202364,0.095498609,0.04393205,-0.163172865,0.052608154,-0.002921587,-0.029147955,0.029328745,1.177726186,-0.011243104,0.275130343,-0.223005012,0.079351174,0.111337279,0.020305403,-1.506520084,0.127728223,-0.223161717,-0.414406878,0.138785163,0.077912901,0.003051731,0.146642067,0.074304454,0.017010086,-0.33147436,-0.047310922,-0.061135748,-0.134014801,0.502059019,0.382044498,0.092973826,-0.179494937
0.497582293,-0.076970376,0.259577586,0.014182785,-0.214406599,0.052091321,0.038793532,-0.047953291,0.035386412,0.962931997,-0.022051388,0.275918453,0.101215891,1.232848853,0.12704144,0.023628832,0.749096792,0.143015356,0.227742573,0.093563312,0.147525655,0.088011914,0.017889673,0.142824679,0.064916938,0.008404663,0.449096665,0.02069444,-0.056308838,-0.134014801,0.489791963,0.73994186,0.052990943,0.12537612
-0.081962996,0.033754348,0.144296778,0.002154535,0.046732637,0.026236453,-0.009016557,-0.065932898,0.00435388,0.734224041,-0.02155674,0.219656318,-0.14275499,-0.005066292,0.09608004,-0.070085831,-1.346814185,0.09285291,-0.204179676,-0.312857783,0.095567802,0.0461906,-0.006938989,0.110802268,0.075003292,0.021247874,-0.17259369,-0.008010415,-0.050132299,-0.187628456,0.464697043,-1.983558969,0.110126499,-0.252058463
-0.060283808,0.056073252,0.198073544,0.002372982,0.055667419,0.026326297,0.022424664,-0.037724894,0.014433645,0.633051068,-0.049883765,0.204648998,-0.149723209,-0.035239131,0.066388972,-0.054061109,-1.951108751,0.06816877,-0.019561428,-0.383363572,0.087316006,0.042382521,0.023537312,0.082600815,0.057518882,0.024978325,-0.132547972,-0.031660389,-0.047654442,-0.155544555,0.342379568,-1.072344609,-0.003932589,-0.127591513
2.096177654,-0.032332568,0.171149255,-0.001183274,-0.152872287,0.029171918,-0.014297145,-0.054878772,-0.017598602,0.619350123,-0.019070875,0.226865347,0.011473029,1.175537123,0.084453748,-0.057597976,-1.333408633,0.101292583,0.134963638,-0.386617074,0.117241038,0.02280224,-0.012730651,0.091213635,0.045418138,0.017228104,-0.172332901,-0.016228011,-0.052333923,-0.111915092,0.350600028,-0.020061905,0.036050294,-0.004359888
1.55632261,-0.01088346,0.084471102,0.006781494,0.000769005,0.031413803,0.051364252,0.016213927,0.034549116,0.521507591,-0.037033877,0.199883635,-0.054623075,-0.054680088,0.062287677,-0.064034306,-0.242696175,0.077711852,-0.095715009,-0.068736319,0.06309703,0.013640054,-0.05202607,0.081241498,0.050047561,0.02027614,-0.107963139,0.042760279,-0.046400991,-0.133444846,0.450223541,-1.042294993,0.034829977,-0.107236126
1.655105232,-0.031462772,-0.064906017,-0.049132764,0.068378609,0.006333578,0.007109078,-0.066758627,-0.013782022,0.316134238,-0.022676634,0.156582326,-0.121414903,1.069609416,0.05750872,-0.095211974,-0.580359919,0.060921682,-0.092600586,0.109461045,0.046532665,0.005543751,-0.061050087,0.038139382,0.04029447,-0.003233603,-0.37916758,-0.098003889,-0.053178945,-0.230266504,0.532941665,-0.480641008,0.036050294,0.00715346
5.167441557,-0.009143868,0.090915063,-0.034754366,0.12755413,-0.00018851,0.025837994,-0.057355959,-0.026904106,0.32350677,-0.031509856,0.170512915,-0.004516025,-0.12946128,0.056456343,-0.106455449,-0.400383486,0.062704861,0.085435406,0.160573904,0.05661645,0.012868366,-0.057168074,0.023465317,-0.018200894,-0.001236836,0.251199114,-0.062317458,-0.051729226,-0.251723823,0.583136508,-0.542908298,0.108694158,0.01049225
2.208313655,-0.01088346,0.011163341,-0.034552534,-0.090353066,0.000842781,-0.031097667,-0.094140902,-0.047739734,0.299841275,-0.050859743,0.165312974,-0.096111038,-0.094895375,0.064755352,-0.056344623,-0.038922031,0.057367805,-0.0097807,-0.041983939,0.041101816,0.01067275,-0.060191512,0.02520937,0.000834947,0.00514414,-0.135186412,0.014065667,-0.035691296,-0.241031381,0.713289128,0.049610845,0.05421126,-0.18048211
1.644681545,-0.032332568,0.020560678,-0.017517418,-0.013375972,-0.000528161,0.017605288,-0.030799413,-0.008559558,0.369443483,0.011290477,0.164322281,-0.072167615,-0.064155681,0.0686911,-0.053196014,-0.730124804,0.088040716,-0.084029478,0.007283974,0.061202997,0.029928116,-0.040324399,0.051215109,0.04650428,-0.002443625,-0.035325637,-0.023691353,-0.038010397,-0.262139675,0.799816598,-0.272356759,0.05421126,-0.074859094
-0.280022962,0.01230524,0.061889688,-0.04390421,-0.019943879,-0.008729935,0.001126563,-0.021396745,-0.024129443,0.203051902,-0.048242473,0.143278674,0.073964254,-0.085065286,0.07675578,-0.049265648,0.176516034,0.07600564,-0.016499973,0.133347454,0.055141889,0.003179564,-0.071780054,0.019431103,-0.056563064,-0.01477209,0.513060709,0.087247367,-0.028131261,-0.272832117,0.915482236,-0.352136051,0.07481286,-0.207900275
0.453302335,-0.009143868,0.069445993,-0.033601913,-0.033921718,-0.03752591,-0.056012189,-0.083912505,-0.082490434,0.135581227,-0.042986147,0.129128703,-0.077412388,-0.072587943,0.052410658,-0.044477485,-0.826632525,0.073358543,0.030033527,0.026080269,0.056662519,0.006813024,-0.064361896,-0.00295339,-0.037463526,-0.024072625,0.259918969,-0.032764231,0.001673104,-0.293940411,1.148081513,-1.419522582,0.055431577,-0.160015291
0.332146357,0.056943048,0.058601963,-0.04192952,0.074954599,-0.01847809,-0.072446258,-0.086935724,-0.059476622,0.15574937,-0.06192574,0.126258393,-0.195797607,-0.108350586,0.026959529,-0.079067009,-1.269293104,0.04176227,-0.107328773,-0.183196189,0.032440523,0.029459498,-0.039762045,0.037294804,0.013127584,-0.006102059,0.102212167,-0.040962218,0.041326174,-0.143998993,1.302066278,0.275963275,0.05421126,-0.135107711
-0.246048166,0.033754348,0.177521173,-0.038781092,0.026139566,-0.011815894,-0.001028911,-0.088480078,-0.034280597,-0.293229168,-0.06529421,0.120450473,0.104901164,-0.048804446,0.088278891,0.004654116,-0.317944732,0.068084667,-0.047202478,0.118968153,0.095527901,0.01811868,-0.084960206,0.006951816,-0.100349209,-0.041445892,0.157605604,0.000191426,-0.017516551,-0.198393333,1.386196207,-0.164170339,0.073592543,-0.107857729
-0.436348718,-0.097549688,0.092385588,-0.017392128,-0.288712009,-0.025711844,-0.02110643,-0.069160732,-0.052831394,0.08772707,-0.065990029,0.171403912,-0.094695138,0.625454001,0.097083488,-0.042991432,-1.88953701,0.0721255,-0.102400542,-0.08646217,0.09176393,0.021775727,-0.06788275,0.036106614,-0.036362948,-0.039423088,-0.08753961,-0.011334615,-0.007865811,-0.219501627,1.443185914,-1.29788619,0.036050294,-0.08014799
0.192731964,-0.097549688,0.080090695,-0.02359705,-0.287286307,-0.021849979,-0.033416816,-0.06946601,-0.011962769,0.19953058,-0.067565471,0.181613435,0.064271477,-0.152833717,0.086825229,-0.095499137,-0.713869734,0.079957005,-0.068192588,0.048609304,0.075761925,0.031759665,-0.058233088,0.085207944,0.007534906,-0.032979952,0.366418939,0.085640581,-0.017924682,-0.198393333,1.393627095,0.655052235,0.055431577,-0.322788685
3.495203291,-0.118129,0.04628605,-0.034096055,-0.1373696,-0.016198418,0.023940277,-0.068956117,0.058798365,0.146410706,-0.091664607,0.163519023,-0.037921761,-0.159446254,0.058798715,-0.096362819,-1.416421156,0.060934791,0.038134852,-0.056149021,0.092110397,0.004798832,-0.089528692,0.101509811,0.014547982,0.000353689,-0.142466106,0.140376053,-0.008577355,-0.187628456,1.373626887,-1.615428064,0.016669011,-0.101440772
0.314517667,-0.117259204,0.030354088,-0.031291363,-0.174518262,-0.02754136,-0.024361956,-0.031977117,0.059406963,0.169880723,-0.101022165,0.161323487,-0.147136192,-0.198565196,0.010401308,-0.113532333,-0.558222965,0.017814196,0.039797245,0.024489927,0.049762022,0.008663635,-0.065021621,0.144779068,0.060475749,-0.021227472,-0.136923351,0.021889249,-0.022952519,-0.166309432,1.313466096,-1.79734547,0.016669011,-0.002967177
3.006449104,-0.052042084,0.014430331,-0.026277964,-0.049158841,-0.030361349,0.015945366,-0.059201474,0.146508151,0.212569923,-0.080120804,0.190271455,0.159938182,-0.245085315,0.019040595,-0.140834125,0.099275472,-0.009017069,-0.0591749,0.098773456,0.007546452,0.002418141,-0.095918975,0.132251136,-0.047122468,-0.037923457,-0.282776846,0.10831551,-0.020695323,-0.155333825,1.343128609,-0.435891187,0.034829977,-0.268903899
2.70671456,-0.118998796,0.013780962,-0.072403552,-0.033969043,-0.043297823,0.002758593,-0.077181081,0.137661079,0.137050014,-0.087836864,0.179474137,0.052690486,-0.234962091,0.002696792,-0.123562601,-0.877708438,-0.003662583,-0.029311333,0.182391979,-0.018343738,0.013460478,-0.087465668,0.137797014,0.018840974,-0.031090671,-0.792747866,0.006278865,-0.016565243,-0.165528747,1.228113329,0.534147572,0.015448694,-0.293452047
-0.153548772,-0.074360988,-0.114339887,-0.04870065,0.023780775,-0.060887189,0.017867099,-0.073684108,0.20871878,0.218862135,-0.057745818,0.162988822,-0.053918874,1.103503816,-0.058843292,-0.121786186,-0.508858757,-0.030466997,0.096153803,0.221258847,-0.00389225,-0.022569569,-0.104262748,0.136025378,0.011322093,-0.026014345,-0.178451857,0.050308105,-0.008136012,-0.133444846,1.041782404,-1.667456183,0.03360966,0.008413569
5.308780849,-0.140447904,-0.049872321,-0.036415261,-0.037753538,-0.040476949,0.001152575,-0.029147955,0.234713464,0.380659822,0.022288169,0.219929593,0.006943597,-0.184726313,-0.021256666,-0.064927563,-0.409064026,-0.024376832,-0.026353283,0.291647397,-0.000795461,0.024537884,-0.086391742,0.182687943,0.006645897,-0.00621606,-0.381719585,0.113876409,0.029003917,-0.011041514,1.313418221,0.128610174,0.036050294,-0.013172188
3.812752491,0.033754348,-0.025268013,-0.003513192,0.120978141,-0.047302762,-0.039315616,-0.084738234,0.245010255,0.452310012,-0.034648595,0.242034563,-0.02405419,-0.153171933,0.008022354,-0.038065865,-0.165524487,0.025287168,0.089531899,-0.044187495,0.032696899,0.041528069,-0.049863891,0.232994256,0.06594205,0.005683804,-0.080333225,0.103902138,0.041941666,0.045116466,1.446634066,-2.425259512,0.07481286,-0.031114849
2.411509248,0.033754348,-0.001613411,-0.003801199,0.117193645,-0.056997452,-0.068054516,-0.068446224,0.263453035,0.278983543,-0.037656523,0.247164062,0.09192143,-0.134822095,0.035168645,-0.010504243,-0.105386483,0.040330852,-0.029515201,0.179534493,0.033632454,0.07146474,-0.037140005,0.21379402,0.018262026,-0.01029337,-0.321273329,-0.000929382,0.036180425,0.045245511,1.454875028,-0.131375494,0.091753509,0.124575182
1.24090816,0.013175036,0.042704183,-0.028720952,0.097906462,-0.059938663,-0.059533856,0.01373674,0.288311043,0.400326307,-0.06247293,0.222274612,0.057608079,1.665242823,0.038425246,-0.042104125,0.169892896,0.013653741,-0.043143981,0.14322255,0.019552549,0.076123959,-0.03366397,0.20699128,0.031545459,-0.00170422,-0.17882327,0.025704606,0.096254687,0.182778165,1.514296854,0.279415202,0.036050294,-0.152305339
0.387633338,-0.031462772,0.086578725,0.020499188,-0.027452958,-0.038498927,-0.008635197,-0.085406045,0.359568477,0.570258549,-0.041818163,0.234977467,0.129748216,1.000229613,0.0397362,-0.051867729,0.496775287,0.048775482,0.137126223,0.245694515,0.076606844,0.072252825,-0.0327806,0.281304961,0.097552389,0.029224727,0.242706713,0.075107773,0.092376576,0.25330212,1.359768711,-0.244503103,0.07481286,-0.129496574
-1.185208171,-0.032332568,0.096145477,0.02789141,-0.007232688,-0.027601741,-0.015707285,-0.122894938,0.333079075,0.516575789,-0.049870737,0.244580425,0.007076265,0.600120085,0.068688001,-0.005665362,-0.719192711,0.079656524,-0.040885023,-0.150848758,0.113322789,0.108461557,0.001339465,0.299200844,0.109810135,0.041284414,-0.245630829,0.223433025,0.112277975,0.312007646,1.414584982,-0.744839825,0.055431577,0.053862693
-0.663786968,0.033754348,0.051846343,0.058293142,0.045366841,-0.055451316,-0.017092945,-0.003417138,0.274451763,0.690518212,-0.06856774,0.238272146,-0.025149475,-0.078755848,0.052705435,-0.010917734,-0.502029777,0.05329241,-0.106425713,0.062265872,0.088922904,0.09180686,-0.029810185,0.279747269,0.102993422,0.010078353,-0.077623163,0.048897398,0.099627322,0.229923008,1.27530428,0.250600183,0.036050294,0.149843734
2.986248456,-0.010013664,-0.017893026,0.015684486,0.092816082,-0.080889526,-0.033985001,-0.031467224,0.258698821,0.651853013,-0.059822975,0.235288708,0.131353829,-0.186467324,0.018423469,-0.059800268,0.587235816,0.015254383,0.00823763,0.174152059,0.030822306,0.066783691,-0.05184866,0.195427719,0.054845663,0.007851909,0.146694642,0.194776508,0.102581823,0.125523946,1.435853969,0.609011691,0.016669011,0.140597384
1.099537015,-0.075230784,-0.076265237,-0.02053007,-0.054681929,-0.084846209,-0.065015384,-0.077181081,0.224581179,0.421062658,-0.123246483,0.206184245,0.057126376,0.850222302,-0.012392959,-0.079424134,0.05345037,-0.002972846,0.107843389,0.064589438,0.044029377,0.085484265,-0.040128745,0.183497315,0.08388105,0.005841012,0.291937251,0.021135408,0.099883289,0.113705517,1.495241606,-0.169961082,0.073592543,0.166105489
0.928668048,-0.097549688,-0.080374131,-0.022807898,-0.111999038,-0.085000231,-0.05054042,0.00449199,0.213820652,0.257048977,-0.059645694,0.185205444,-0.002588745,0.850653061,-0.02328148,-0.088371073,-0.641319161,-0.028961783,0.053512995,0.077470312,-0.004659431,0.067849511,-0.050000781,0.160028853,0.089397197,-0.011724575,0.232047911,0.134943324,0.109621181,0.090681301,1.486492861,-0.861254479,-0.005152906,0.048714003
1.451704783,-0.118998796,-0.023452325,-0.038525538,-0.086628479,-0.081741902,-0.046336946,-0.085406045,0.156120363,0.046445868,-0.090443754,0.132439158,0.025352987,0.845314042,-0.022978935,-0.041812319,0.270537794,-0.008935888,0.115149391,0.101266869,0.00447184,0.062547265,-0.032264313,0.163731359,0.110302378,-0.014225685,0.116992473,-0.056170036,0.075243077,-0.055810887,1.621862756,-1.283261033,0.016669011,0.136008094
3.108198354,-0.119868592,-0.07588655,-0.05247383,0.045426748,-0.096178854,-0.04739692,-0.049446831,0.129500819,-0.096335448,-0.121994154,0.097656995,-0.010577771,-0.243097337,-0.03149393,-0.088937563,-0.308477062,-0.041120515,0.136512623,-0.01245795,-0.049331852,0.036997219,-0.063584,0.102029677,0.052199019,-0.020143037,0.238998518,-0.013018719,0.067673021,-0.10058026,1.707425154,0.67414103,0.054423284,0.099337192
2.16797122,-0.140447904,-0.088173236,-0.090239677,-0.152872289,-0.110005627,-0.026419984,-0.004242867,0.070946728,-0.22090327,-0.06572473,0.043476161,0.104228852,-0.274632873,-0.051513225,-0.107326002,0.458535834,-0.062180326,0.041910064,0.161645515,-0.065378498,0.042290691,-0.062250351,0.072695637,0.015411752,-0.00991139,0.392068398,0.08872225,0.078298579,-0.134014801,1.613983809,0.007919593,0.013961308,0.228465165
1.796935608,-0.161027216,-0.07575546,-0.070303317,-0.205531724,-0.098212494,-0.039479432,-0.067426438,0.053172701,-0.22432894,-0.087336958,0.044465776,-0.043687716,-0.229923216,-0.056798983,-0.081940502,-0.613475863,-0.055990157,-0.044608087,0.015992197,-0.057461699,0.050985182,-0.037732858,0.1071573,0.083871793,-0.009081,0.219588726,-0.01910597,0.070929463,-0.077910596,1.560494006,0.512418466,0.015925318,0.158534502
-1.041948309,-0.096679892,-0.099887841,-0.033440265,0.046792543,-0.089790325,-0.01506971,-0.013487617,0.055843531,-0.171933154,-0.036859744,0.050340483,0.10540437,0.986688924,-0.055795394,-0.069590007,0.258241248,-0.035792722,0.117875723,0.15179242,-0.037649645,0.062531838,-0.048317436,0.090280436,0.036476957,-0.018216549,0.350673083,0.080300977,0.073471773,-0.111915092,1.664009607,0.088950535,0.073804567,0.079745177
0.633606203,-0.118129,-0.115576682,-0.038509747,-0.057040719,-0.122276547,-0.078503171,-0.01399751,-0.016540953,-0.218171767,-0.06861715,0.038660625,0.06424502,1.000190529,-0.05091509,-0.050164252,0.49994794,-0.041691488,-0.090754266,0.143513037,-0.056461832,0.044057292,-0.068555065,0.064905909,0.014858104,-0.038645655,0.298787937,0.081611798,0.071063178,-0.177074309,1.629493199,0.053094941,0.015925318,0.104236338
4.603950238,-0.184215916,-0.043602086,-0.066461727,-0.139788297,-0.146960383,-0.115193312,-0.068956117,-0.081351232,-0.314480177,-0.053501558,0.01683953,0.078823947,0.80495645,-0.059447293,-0.094168561,-0.339045387,-0.073045621,-0.037221965,0.197731693,-0.087724086,0.047113214,-0.064357637,0.05210523,0.019367002,-0.050644868,0.43150052,0.067003925,0.062117989,-0.251585528,1.576540113,-0.195749198,-0.023313872,0.25642593
-1.129121487,-0.184215916,-0.116220369,-0.063949452,0.013480197,-0.14136826,-0.095759597,-0.049956724,-0.072756657,-0.372080443,-0.063508052,0.002137978,0.081295595,-0.246277418,-0.036212602,-0.063625473,0.776379588,-0.072638443,-0.013599685,0.266946611,-0.079938159,0.05336388,-0.05083423,0.062164402,0.035605278,-0.048378125,0.387619466,0.04911933,0.039530706,-0.304632853,1.479151714,-0.018543041,-0.041474838,-0.016054175
0.048095684,-0.140447904,-0.145156464,-0.062892542,-0.042955647,-0.140950731,-0.059875476,-0.031467224,-0.088416568,-0.347800334,-0.045375647,-0.004998005,0.101298719,0.799374512,-0.055123663,-0.069121526,0.205092436,-0.074181175,0.077815571,0.138811469,-0.088976822,0.052617807,-0.06314834,0.06311424,0.036900703,-0.034062078,0.428358413,0.015031999,0.046176605,-0.272832117,1.507312644,0.140864789,-0.022093555,0.012114118
4.577932463,-0.140447904,-0.092761291,-0.050809536,-0.017100558,-0.143726446,-0.053605704,-0.013487617,-0.084122261,-0.401477865,-0.039163516,-0.033830586,-0.068181113,0.681916428,-0.071459282,-0.074807501,-0.035860751,-0.069613108,-0.084221272,0.150181725,-0.08650674,0.047813419,-0.050893595,0.048573149,0.060002351,-0.03127659,0.21751097,0.015255698,0.052998567,-0.294078706,1.514351642,0.209205278,-0.022093555,0.271622529
3.197608444,-0.161027216,-0.225947044,-0.057000396,-0.034028951,-0.170981879,-0.094734036,-0.07651327,-0.157245244,-0.472782011,-0.05224403,-0.06200818,0.027205384,-0.254190404,-0.087329469,-0.091975863,-0.313715647,-0.097008522,0.043941749,0.438211318,-0.118613076,0.028081942,-0.090912918,-0.008119943,-0.022125198,-0.051615477,0.266921844,0.098890772,0.041074426,-0.357680178,1.305435587,0.447336128,-0.080237404,-0.070840557
0.775649516,-0.008676958,-0.187839108,0.07582332,-0.026459963,-0.212873861,-0.029403985,0.052951611,-0.171922834,-0.187468542,0.033074563,-0.029012375,0.031364894,-0.118297494,-0.118649969,-0.004125741,-0.036357355,-0.074956661,0.06519048,0.452062417,-0.079166634,-0.071164017,-0.190042433,-0.022103794,-0.054680094,-0.116451472,0.376019514,0.184597993,-0.007874078,-0.26185651,0.457698112,1.017619306,-0.024534189,0.21953172
1.255794295,0.034624144,-0.132822158,0.001385422,0.081037977,-0.202091209,-0.115909284,-0.018446174,-0.209858591,-0.210951219,-0.01188464,-0.023238921,0.183613855,1.890092106,-0.097156986,0.025200108,0.733842785,-0.095573992,0.071403146,0.430828063,-0.118108375,-0.006300227,-0.124692128,-0.044773086,-0.044557501,-0.098455421,0.488340657,0.09997836,0.053740889,-0.155544555,0.881799066,0.178679207,-0.022093555,0.159103682
-0.809442136,-0.032332568,-0.065239866,0.014642112,0.124822538,-0.150672409,-0.055399682,-0.047127562,-0.155810211,-0.202316942,-0.038134877,0.001630305,0.072238926,0.558020815,-0.030940616,0.072475213,0.854787536,-0.056733896,-0.038440723,0.34515153,-0.083460414,0.070270252,-0.066124883,0.004970164,0.004674279,-0.0436648,0.363308923,0.095942924,0.07192164,-0.134014801,1.502997568,-0.631583382,0.055908201,0.15286745
-0.365929156,-0.01088346,-0.07989855,0.042839796,-0.002022492,-0.15375948,-0.057714678,-0.017778363,-0.16403178,-0.139316283,-0.047978622,0.00658365,0.15206414,-0.101887894,-0.025352314,0.074671644,0.563642779,-0.017279863,0.056356632,0.210520674,-0.075834733,0.059251013,-0.062124945,0.009081289,0.006688025,-0.054920419,0.573518043,0.069274075,0.066977026,-0.155544555,1.580430471,-0.467946436,0.034829977,0.037011972
-0.628267134,-0.010013664,-0.050414569,0.045090951,0.023288159,-0.155713543,-0.079396398,-0.036899165,-0.1973783,-0.212118496,-0.052633956,-0.022167823,0.082588134,-0.078745489,-0.028516986,0.087946488,0.4459837,-0.013939624,0.104775036,0.091440364,-0.039891285,0.063530792,-0.042183483,-0.005071747,-0.018316358,-0.048023319,0.337260357,0.145493809,0.070071933,-0.219712357,1.658898031,-1.728789311,0.055431577,0.27746982
0.081313284,0.011435444,-0.035154293,0.062650091,0.073588807,-0.117494194,-0.040822325,-0.020571016,-0.167541665,-0.20943037,-0.027154432,-0.035351308,-0.098464506,0.609850449,-0.022847066,0.071763115,0.188799198,-0.030429584,-0.079984066,-0.059638372,-0.053345106,0.078222486,-0.043893975,0.007095336,0.016498512,-0.032363034,0.009217645,0.0129263,0.057687072,-0.230266504,1.629072165,0.32753558,0.016669011,0.242989885
0.09361904,0.033754348,-0.031035417,0.067434211,0.147774399,-0.095348874,-0.001915311,0.025616595,-0.130200118,-0.048942786,-0.047384517,-0.020579238,0.004376612,-0.059989568,-0.025858511,0.075751063,-1.037934244,-0.035231217,-0.078244743,-0.233375843,-0.057659643,0.098268412,-0.020322639,0.043694875,0.072873216,-0.040263022,-0.245502139,-0.120569079,0.038061591,-0.176863579,1.618155193,0.589810911,-0.022093555,0.12795844
4.053018585,0.011435444,-0.012953422,0.051566181,-0.004441191,-0.081091503,0.003076503,-0.046301833,-0.141536748,-0.00599537,-0.062426297,-0.026132059,0.106546879,0.826289503,-0.048455346,0.075751215,-0.066156614,-0.056996757,0.099244256,0.144218188,-0.071492592,0.114595456,-0.007878776,0.067801664,0.098075482,-0.023753533,0.405802054,0.146493137,0.063117749,-0.134014801,1.572059846,0.212987801,0.036050294,0.121822682
1.216249693,-0.030592976,-0.051585017,0.041692814,-0.044321443,-0.072064256,0.013532898,-0.027496497,-0.102153714,0.041450299,-0.066675502,-0.042377568,-0.026419279,-0.154385657,-0.083647447,0.003049193,-0.61966153,-0.081655498,0.019758494,0.051948043,-0.099487111,0.106072261,-0.021819525,0.017086563,0.03325447,-0.04040436,-0.00560778,0.002535758,0.042485245,-0.022376346,1.444262612,-0.904900305,-0.002712272,-0.180847362
3.182620153,-0.118129,0.009976389,0.03514812,-0.032603249,-0.049447195,0.016517565,-0.018919558,-0.110453994,0.019453241,-0.053017151,-0.027640071,-0.046506194,0.749520706,-0.076297094,0.01503946,-0.243902611,-0.093703228,-0.029321063,0.082955202,-0.116535795,0.112641088,-0.026314606,0.031366226,0.091075171,-0.015737981,-0.217769381,-0.065958643,0.052713134,0.034039724,1.459595204,0.213164184,-0.023313872,0.225617545
-1.166457653,-0.096679892,-0.068231208,0.024780022,-0.030244458,-0.001922967,0.090432215,0.017039656,0.019418752,-0.037953183,-0.053406819,-0.039980186,0.047477705,-0.19249328,-0.104691031,-0.000696585,0.141459502,-0.126712317,0.095728012,0.477104313,-0.107640504,0.112889741,-0.025035765,0.010400474,0.02703823,-0.049708977,-0.076846682,0.108327839,0.041927109,0.101887088,1.688665665,-0.46599534,0.05421126,0.030016576
2.626385082,-0.053781676,0.043938753,0.06504768,-0.05704072,0.019078539,0.080605162,-0.034932241,-0.029432406,0.049414488,-0.045714797,-0.014527771,0.055248878,1.66219232,-0.096896208,-0.001843846,-0.167995935,-0.132361157,0.023118652,0.162716605,-0.123849217,0.113777162,-0.011709106,0.04345934,0.113791875,-0.02993302,-0.045032251,-0.038115219,0.036192882,0.113092875,1.79969387,-0.499046749,0.015448694,-0.066128279
-4.287964104,-0.096679892,-0.205200418,0.062992111,0.068438517,0.054279235,0.166554109,-0.054878772,0.090517044,0.027958574,-0.023277833,-0.029406123,-0.018336743,-0.187562628,-0.102677913,-0.013415969,-0.681534645,-0.113618888,0.022657886,0.187792954,-0.135222743,0.110727066,-0.016158045,0.048398201,0.121096576,-0.037404957,-0.309522203,0.062259364,0.025220104,0.194596594,1.760601198,-0.522612083,0.073592543,0.182554446
2.212127257,-0.031462772,-0.006186458,0.042931356,0.076380304,0.058799264,0.134813511,0.024790866,0.055677028,-0.029360816,-0.040943296,-0.022893119,0.104631567,1.169989685,-0.086436532,0.006729945,0.400287507,-0.124698928,0.142218338,0.21550421,-0.124172806,0.102916019,-0.019283352,0.035865408,0.091565454,-0.036054174,0.156803795,0.089019454,0.027500333,0.182778165,1.759674918,0.49801956,0.05421126,0.222076333
0.411498841,-0.053781676,-0.048304262,0.050687401,0.097966369,0.077294917,0.142672308,-0.038550623,0.099742733,0.059977654,-0.058648111,-0.0269142,0.004861522,0.751633315,-0.09572207,0.003097787,-0.606148745,-0.127571171,-0.003742431,0.08854307,-0.111713562,0.134215728,0.01598123,0.074820725,0.151556053,-0.031999327,0.030088447,-0.103097129,0.02804631,0.265120549,1.622435569,-0.766142892,-0.002712272,0.143363907
-1.510151431,-0.053781676,0.013626925,0.059318631,0.049151335,0.097821893,0.148394334,0.005159801,0.139917526,0.196833317,-0.038298887,0.019771985,0.110260705,-0.147488033,-0.039533541,0.029145903,-0.323186059,-0.089739425,0.085948762,0.105356061,-0.083086552,0.173106176,0.029068783,0.115424517,0.140480009,-0.01647941,0.182121485,0.068324736,0.044545593,0.347334852,1.596475541,0.48471099,0.07481286,0.268126662
-0.992506068,-0.07610058,0.006031795,0.062286801,-0.031610252,0.082368396,0.127278696,-0.004084949,0.105164125,0.313053494,-0.04115028,0.037497723,0.052521631,-0.155002751,-0.029568686,0.039051235,-0.006287684,-0.078771185,-0.026243818,-0.057144837,-0.078404005,0.163716127,0.010034424,0.112202231,0.138882635,-0.033370663,0.072872837,0.006696203,0.035902025,0.335386758,1.649663795,-0.941772062,0.07481286,-0.053657846
0.360588629,-0.010013664,-0.007020827,0.050017089,0.049091427,0.05681821,0.111940761,-0.01399751,0.14806939,0.362243112,-0.040947924,0.016719252,-0.041641121,1.167512572,-0.060663481,0.016669162,-0.110549974,-0.091217097,0.063810657,0.158440558,-0.085089355,0.14670581,-0.011131423,0.118556699,0.168190923,-0.042510755,0.145887684,-0.070148091,0.024955005,0.276810105,1.572385443,0.457045215,0.036050294,0.200017514
2.738553691,-0.119868592,0.065077597,0.022480061,-0.18903604,0.061138809,0.100049956,-0.031467224,0.118221598,0.460427498,-0.02415272,0.040243291,0.026175526,0.886324226,-0.059421943,0.006609329,-0.247081391,-0.100664507,0.203228846,0.071265834,-0.07481199,0.143564867,0.000338097,0.119262707,0.148787296,-0.041079633,0.227320878,0.103574018,0.040693815,0.229665262,1.610729088,-0.0661763,-0.003932589,0.316386419
2.600103442,-0.054651472,-0.005497442,0.054291591,-0.1519392,0.047248005,0.044107986,0.01373674,0.077020928,0.589304318,-0.041027546,0.051108477,0.086012563,-0.187465408,-0.055558037,0.016909472,-0.022495129,-0.09948798,0.049729406,0.296052161,-0.082628353,0.156807383,-0.017311057,0.123839076,0.131266087,-0.045516436,0.310562431,0.057686661,0.040908805,0.253914762,1.613463258,-0.131569278,0.014705002,0.141272924
-0.544643991,-0.07610058,-0.083117874,0.037887147,-0.214466506,0.02190542,0.051927177,-0.011994077,0.093725634,0.589647364,-0.029533239,0.052961228,0.130629106,0.879386679,-0.052000402,0.009162914,-0.816224416,-0.10157215,-0.017351616,0.100224686,-0.079114941,0.153631727,-0.001065019,0.135181664,0.157143239,-0.021079877,0.167558997,0.122885584,0.045539184,0.170959736,1.606740475,0.064462703,0.032389343,0.400360852
-0.49816735,-0.033202364,-0.129423202,0.014408421,-0.103004349,-0.015339986,-0.014103253,-0.059048835,0.041955635,0.342975665,-0.043490912,-0.016072242,-0.147845424,-0.207467458,-0.082913199,-0.005442844,-1.037289923,-0.113295492,0.007955558,0.127337587,-0.125062465,0.128599409,-0.016303577,0.061678515,0.078469428,-0.044169537,0.055997353,0.080812855,0.039629849,0.079475514,1.553446842,-0.222153652,0.015448694,-0.045640696
2.331587548,0.056943048,-0.051182875,0.020707245,0.156709183,-0.059302047,0.00864409,-0.057865852,-0.024800146,0.078986547,0.000186387,-0.047880591,-0.082728947,-0.1595588,-0.061693901,0.058991934,0.080506197,-0.107566018,0.032056634,0.451129879,-0.116413916,0.073582775,-0.057840416,0.039257735,0.092161487,-0.060706238,0.309597019,0.07162216,0.0341425,-0.04504601,1.492604171,-0.311837016,-0.061599814,0.378729234
1.484114565,0.056540162,-0.106927905,0.101669144,0.146408604,-0.077727819,-0.016133028,-0.045160638,-0.067097759,0.155053167,-0.038787631,-0.020674012,-0.020347673,-0.098289541,-0.06955283,0.108579549,-0.352784397,-0.11818213,0.000222872,0.394148402,-0.074852675,0.036920535,-0.100563313,0.039379939,0.022081715,-0.104547289,0.352672761,0.066424958,0.020322949,-0.010729649,1.38834945,-0.143646282,-0.006373223,0.332986887
2.264251305,0.078859066,-0.092091406,0.122222232,0.04263525,-0.090716193,-0.048422031,0.009603912,-0.094114912,0.279420576,0.005051999,0.013635479,0.016569268,-0.101761864,-0.052130276,0.105142138,-0.104816744,-0.108302731,0.029962787,0.217578103,-0.086364199,0.049406916,-0.088821956,0.058819155,0.023953246,-0.081610162,0.30401191,0.175989156,0.02909695,-0.011299604,1.358933831,0.58066293,0.036050294,0.02835271
1.632088746,0.10117797,-0.089207974,0.153890707,0.047785538,-0.084759139,0.039934572,0.046546588,-0.006440458,0.557840754,-0.00132615,0.078940275,-0.062942416,0.59212399,-0.02184813,0.121105157,0.160440787,-0.049973939,0.004642036,0.149775535,-0.058655742,0.080402109,-0.060411559,0.089477032,0.080758371,-0.042083279,0.117593348,0.100743098,0.077239088,0.06752804,1.379606521,-0.836154742,0.016669011,0.174939636
0.19024942,0.170808094,-0.075278305,0.143208588,0.204158423,-0.103799908,0.015895851,-0.016952634,0.0066521,0.49738195,-0.024766225,0.094499794,0.153633586,-0.103479903,-0.008096857,0.100884767,0.273918635,-0.028247698,0.090251394,0.223079269,-0.036823455,0.063595356,-0.076703615,0.082562621,0.054525137,-0.066214486,0.374321873,0.101827935,0.073577658,0.06752804,1.249668645,-0.78287314,0.055431577,0.020345911
0.830304615,0.055203456,-0.075076209,0.116068808,0.004060884,-0.129356295,-0.079408903,0.022430165,-0.1159442,0.431024272,0.030776911,0.061856279,0.043020066,0.597770561,-0.022842327,0.110147212,0.260222719,-0.053527457,-0.047727057,0.23460887,-0.052241982,0.081358642,-0.07587628,0.102979033,0.068382833,-0.062898039,0.261212448,0.144701519,0.047621174,3.5228E-05,1.248743081,0.08109084,0.036050294,0.321154493
-1.000981385,0.078859066,-0.054853932,0.141942031,0.077373298,-0.105824882,-0.009695721,0.010587374,-0.043895177,0.390251423,0.003357955,0.045165174,0.075500355,-0.054910476,0.003299162,0.144291584,-0.455914042,-0.046491906,-0.030939691,0.086275139,-0.027388061,0.091261736,-0.066433408,0.119107427,0.067636306,-0.057886368,-0.018403874,0.07156757,0.027005745,-0.033711178,1.14809004,0.27439479,0.111134792,0.201789097
-1.581006676,0.080195772,-0.031068653,0.13644765,-0.041962652,-0.113751723,-0.054409945,-0.018093829,-0.129718791,0.354373198,-0.007913175,0.016082733,-0.018925867,0.631423455,-0.031536035,0.156744822,0.516128628,-0.027667392,0.049688552,0.278705899,-0.01220245,0.114727467,-0.048421971,0.123222428,0.054338698,-0.069071702,0.22013197,0.20912755,0.033087989,-0.056380842,1.183576749,-0.080652777,0.07481286,0.269795911
1.400638467,0.032884552,-0.05723004,0.133021291,-0.096920971,-0.120773009,-0.012697932,-0.036899165,-0.080169028,0.262511434,-0.063838297,0.018431112,0.08517778,-0.089953495,-0.007347476,0.114565765,-0.03140568,-0.031011813,0.142331306,0.034404667,-0.022634637,0.09334622,-0.064388971,0.10590604,0.072918221,-0.076550548,0.25065254,0.114573773,0.039893868,-0.078480551,1.204342184,0.131988956,0.016669011,0.250737654
0.632511149,-0.011753256,-0.101670204,0.120445045,-0.055987816,-0.154878986,-0.029978213,-0.000114222,-0.131426089,0.050856365,-0.030559509,-0.053461923,0.036285032,1.930553748,-0.06557783,0.069500936,0.019525353,-0.075931575,0.035632635,0.285900665,-0.075596431,0.073070462,-0.083730876,0.054441893,0.049668483,-0.068731353,0.174453502,0.046394311,0.040726005,-0.134014801,1.16662383,0.158100889,-0.041474838,0.11727625
-0.019772844,0.034221258,-0.110172328,0.109638844,-0.001089403,-0.152440163,-0.044100382,-0.093315173,-0.165986417,-0.031556995,-0.078455981,-0.081681176,0.105996639,0.535568783,-0.07323273,0.083604612,0.411641993,-0.093302371,0.052585044,0.310958125,-0.090134072,0.040546281,-0.103736402,0.041735976,0.007573687,-0.065234716,0.176196567,0.218852442,0.055174121,-0.111345137,1.140504598,-0.243406579,0.05421126,0.109909001
1.449431583,0.145815778,-0.116011867,0.123498384,0.196696668,-0.144011759,-0.027230595,-0.026513035,-0.156217378,0.024275262,-0.0272146,-0.073299335,-0.028826307,-0.136468053,-0.076365285,0.095363064,0.29717692,-0.079527705,-0.055580578,0.256096773,-0.080367151,0.051509516,-0.103119836,0.056731845,0.039629797,-0.085068837,0.125433054,0.084880744,0.040056046,-0.055810887,1.177569867,0.091535458,0.034829977,0.409479861
3.204884123,0.010565648,-0.033459223,0.124674874,-0.071550412,-0.148725302,-0.023123414,-0.044492642,-0.122170378,-0.007017216,-0.068660246,-0.052690462,0.112992337,0.577231254,-0.065971158,0.076731543,-0.670454122,-0.087759713,-0.035989042,0.154906491,-0.089406608,0.050770023,-0.071822564,0.025116265,0.026066935,-0.072044106,-0.341245574,0.078764401,0.055368398,-0.089815383,1.137944258,-0.200139373,0.016669011,0.302297776
0.75681789,-0.008676958,-0.116116469,0.076848597,-0.030244457,-0.169275929,-0.100625792,-0.103372662,-0.177315508,-0.320397975,-0.013199928,-0.124962605,0.004043788,0.503805514,-0.064108524,0.026700481,-0.221525012,-0.091373865,0.029533887,0.221235815,-0.123966265,0.035370456,-0.126885672,0.00933258,0.005077442,-0.111303261,0.312360485,0.148157748,0.054711758,-0.155544555,1.1866266,0.7545502,0.014228377,0.319485223
0.62986372,0.033754348,-0.180409724,0.075560945,0.02843845,-0.192958212,-0.066446727,-0.057355959,-0.174155817,-0.215120009,-0.025216266,-0.119421905,0.075128358,0.48166246,-0.06780049,0.04082979,0.241410097,-0.097405059,0.143646393,0.19499349,-0.132763678,0.006882129,-0.143845913,-0.019371919,-0.01534697,-0.077124096,0.303718848,0.069413535,0.040771263,-0.198182603,1.09560923,-0.348947678,-0.060856121,0.206865534
0.424485853,-0.01088346,-0.155185225,0.067408086,-0.050464727,-0.201327843,-0.089123704,-0.048305266,-0.156921758,-0.227048491,-0.042631624,-0.084332584,-0.004324148,0.880786879,-0.045014613,0.062388249,-0.722531556,-0.101893471,0.100010884,0.350684312,-0.096319445,0.008175386,-0.12955966,-0.036164088,-0.049676502,-0.144791037,0.104182278,-0.011724583,0.02055006,-0.293940411,1.41185013,0.177919096,-0.003932589,0.391408575
3.358305455,-0.030592976,-0.06276101,0.111075507,0.1477744,-0.191107373,-0.091808967,-0.076003377,-0.174379251,0.028977795,-0.030245647,-0.030927603,-0.007738583,0.543559728,-0.029384178,0.107808331,0.080705642,-0.104075254,0.006887001,0.371104139,-0.094173479,0.02223426,-0.146178502,-0.02452655,-0.062347526,-0.110772448,0.359723785,0.116155961,0.038044031,-0.293940411,1.621454001,0.300997186,0.01300806,0.239723456
2.746184731,0.122160168,-0.108103688,0.113784462,0.118134819,-0.167974862,-0.072792529,-0.040044163,-0.158725882,0.26326834,-0.058195391,0.063805836,0.038957719,-0.119687801,0.02825576,0.125354673,0.028457015,-0.077099228,0.034968327,0.070242681,-0.077875642,0.025352843,-0.132592646,0.004400913,-0.019591259,-0.096615378,0.097268649,0.08798559,0.061403918,-0.272693822,1.629935621,-1.078212814,0.071151909,0.503581514
3.899860913,0.010565648,-0.147848295,0.077638851,-0.050897435,-0.181110764,-0.061692515,-0.059558728,-0.136208296,0.188880719,-0.052883347,0.066723547,0.107725021,-0.165119503,0.045142266,0.10581413,0.598454631,-0.077400523,0.057322271,0.452395855,-0.117299488,0.027491401,-0.118781872,-0.00794132,-0.026682416,-0.100395471,0.513576724,0.149985534,0.061724041,-0.241031381,1.419657171,-0.97537977,-0.003455965,0.182331375
1.085345814,-0.032332568,-0.155145925,0.022874655,-0.049531639,-0.190197814,-0.10943631,-0.178428377,-0.185212231,0.008740802,-0.029030614,0.029252514,0.024459135,-0.20728488,0.051651063,0.053515548,-0.823933464,-0.089467498,0.012064704,0.320870003,-0.140703278,0.034521541,-0.117028025,-0.034741754,-0.019413004,-0.088872484,0.11409829,0.111044711,0.067403758,-0.283386264,1.378890741,-1.266866427,-0.060856121,0.333176012
0.676865768,-0.075230784,-0.144940615,0.046930565,-0.034028949,-0.174999223,-0.085398004,-0.13424591,-0.145347494,0.062716536,-0.033596197,0.039641728,0.083737755,-0.208994286,0.038786157,0.080711511,-0.042813804,-0.100507645,0.084873904,0.375409734,-0.136081753,0.019852041,-0.129869282,-0.024837104,-0.011620615,-0.104697388,0.35955878,0.139360376,0.063567088,-0.241031381,1.347958922,0.833489968,-0.041474838,0.384128911
0.351937208,-0.052042084,-0.119451869,0.03082358,0.073528898,-0.17003487,-0.09710387,-0.169484068,-0.154535785,0.032574254,-0.006143101,0.018934835,-0.028550542,0.502084159,0.013884544,0.095250133,0.226331304,-0.099163941,0.021087606,0.305445066,-0.138447197,0.036343242,-0.111950099,-0.029863595,-0.023102841,-0.085532607,0.193730129,0.148894728,0.07486303,-0.251585528,1.301688815,0.546667154,-0.022093555,0.301469384
-1.794971552,0.011435444,-0.195850961,0.061199144,-0.02509417,-0.195268582,-0.124996761,-0.086115274,-0.22696302,0.2514317,-0.06369143,0.055722986,-0.111891203,0.84411693,-0.013440802,0.073356297,0.040317829,-0.121673578,-0.014799332,0.207588289,-0.165162676,-0.004772729,-0.134261186,-0.037561835,-0.008917279,-0.106377541,0.214806348,0.137759009,0.08414346,-0.241031381,1.227587437,0.021556104,-0.080237404,0.207606583
-1.213565497,-0.01088346,-0.202389498,0.052109658,-0.049964346,-0.217228004,-0.076178388,-0.093315173,-0.17712543,0.264104514,-0.038497392,0.045403537,0.091728666,-0.276279942,-0.043028233,0.017943143,0.38175026,-0.124269313,0.064640988,0.538894466,-0.19007234,-0.025533644,-0.153020909,-0.100256761,-0.063814161,-0.10487284,0.284171766,0.147859175,0.085776979,-0.251585528,1.136588753,-0.022957722,-0.099618687,0.334214649
-0.028635649,-0.053781676,-0.179499275,0.011092852,0.040649259,-0.191109026,-0.122174907,-0.160334937,-0.199407826,-0.06671026,-0.076431693,-0.021553176,-0.084261488,-0.262371543,-0.012763129,0.004466974,-1.158309126,-0.127558205,0.06020935,0.214436552,-0.169444194,-0.01773016,-0.157630583,-0.071143813,-0.030020723,-0.12813269,0.008115926,0.056173913,0.074608263,-0.187206996,1.182132159,0.482579636,-0.099618687,0.134968791
-0.139543515,-0.031462772,-0.152026213,-0.002714757,-0.017585088,-0.177944423,-0.121508067,-0.160391957,-0.187883115,0.073939026,-0.036713849,-0.027669833,0.06954887,-0.223268919,-0.003387761,0.051044706,0.061724282,-0.12931432,0.159120233,0.365995796,-0.160887362,0.003156434,-0.163098215,-0.088196607,-0.082827288,-0.117814033,-0.076785015,0.146295458,0.068839561,-0.155544555,1.176140416,1.237208111,-0.060856121,0.13457022
1.837384513,-0.1413177,-0.140421666,0.00851827,-0.13259211,-0.167102035,-0.046143547,-0.17031875,-0.106104956,0.128494282,-0.069186243,-0.028824388,-0.029127375,0.931901722,0.016867541,0.044712575,-0.283605983,-0.129727395,-0.044651965,0.23885385,-0.170386925,-0.019337811,-0.17493547,-0.092156115,-0.060668212,-0.133008302,-0.052046326,0.03005441,0.05940044,-0.155544555,1.123325592,-0.080758848,-0.022093555,0.167796099
1.195819934,-0.268617012,-0.315070093,-0.368748866,-0.14866317,-0.177574177,-0.038254051,-0.15073314,-0.185756646,-0.64411605,-0.099782489,-0.150697802,0.119042211,-0.016472359,0.014802875,0.194666184,-1.013792774,-0.119240884,0.046538788,0.466912405,-0.083344372,-0.114716917,-0.28764699,-0.173877478,-0.4678724,-0.345377822,-0.300696875,0.069331593,-0.077782782,0.067657085,0.697591582,0.288277155,-0.063296755,0.083187054
1.403535103,-0.268617012,-0.477791749,-0.454790515,-0.213040805,-0.238652372,-0.125873593,-0.169484068,-0.286781221,-0.765054094,-0.108392793,-0.188572437,0.103558558,-0.013414653,0.044917961,0.208659543,-1.45294827,-0.107737112,0.087911415,0.38986225,-0.075614726,-0.109871292,-0.276709816,-0.217781882,-0.515348425,-0.350520881,-0.017426576,0.163417574,-0.07702471,-0.154691435,0.962065721,-0.421610656,-0.101400026,0.134566096
0.749642653,-0.119868592,-0.258749211,-0.027792973,0.023720866,-0.294026216,-0.117291343,-0.057865852,-0.216427781,0.070755884,-0.088150784,-0.068070272,-0.150980368,-0.197792078,0.016020816,0.05924855,-1.127710953,-0.094004861,-0.012529892,0.165381509,-0.130411518,-0.034930603,-0.196449598,-0.10931988,-0.111005087,-0.149672544,0.032988143,0.013396921,0.072787728,-0.324949251,1.111229801,-0.459244475,-0.13828298,0.307302846
-0.94149515,-0.096679892,-0.204207027,0.087233289,0.094181876,-0.138610998,-0.082896604,-0.031467224,-0.01944829,0.411803011,-0.073581209,0.013041468,-0.115155962,0.875081036,0.011942836,0.037535229,-0.006573885,-0.087728804,0.038850011,0.466453844,-0.123465716,-0.031364335,-0.211824532,-0.029835896,-0.054893835,-0.129348339,-0.057956264,0.240035088,0.125966845,-0.121540059,1.215190053,-0.984039345,-0.11899997,-0.006857676
-0.935722267,-0.118998796,-0.175011383,0.110874368,-0.021309674,0.072546863,0.121395255,-0.01762063,0.220673994,0.751534647,-0.11496473,0.130701032,0.052310718,-0.208075863,0.046691799,0.09426111,-0.46308858,-0.073672969,-0.020687062,0.418406265,-0.085138043,-0.017150039,-0.180655152,0.035479271,-0.08463147,-0.161939873,-1.125385817,0.167330296,0.064364215,0.068140682,1.285748978,-0.410263571,-0.023313872,0.300386511
0.632620723,-0.05291188,0.047583654,0.212655011,-0.019010791,0.320671521,0.250769551,-0.005109843,0.494287716,1.01170305,-0.120479514,0.183813828,-0.108334699,-0.135330815,0.024707541,0.136667268,-0.681282657,-0.053097382,0.010352955,0.222769712,-0.062077107,-0.016068073,-0.176570436,0.1694979,-0.044418583,-0.164270282,-2.859456098,0.02429482,0.042220309,0.312654387,1.443582941,-0.827142396,0.016669011,0.250073896
2.040317303,-0.097549688,0.119938438,0.261580121,0.041642256,0.535399386,0.315253092,0.02357136,0.749563023,1.093095267,-0.098400437,0.243426419,0.039654317,0.774896745,0.024841888,0.124331265,-0.347029928,-0.043213656,0.135002704,0.284529034,-0.050016284,-0.001619766,-0.171874326,0.251248683,-0.034248514,-0.155081109,-0.57187907,0.044148796,0.047697715,0.654083314,1.382628381,-0.6125412,0.07481286,0.064482065
-0.987216633,-0.140447904,0.238890835,0.317011899,-0.105423048,0.739156263,0.446964256,0.012869764,1.118659735,1.060214079,-0.105170476,0.288243365,0.19257446,0.731360403,0.009593401,0.11746272,0.784264944,-0.092472317,0.001256976,0.539879131,-0.109690084,-0.009670552,-0.176809461,0.305547351,-0.057310979,-0.137210644,-3.098554254,0.127881163,0.06010258,0.900431825,1.286944558,0.586858746,0.055908201,-0.003008866
-1.470122009,-0.073491192,0.296950823,0.385963264,0.100325158,0.906849784,0.54505443,0.043041686,1.367061151,1.059357423,-0.058373894,0.32236878,0.014707293,-0.223647631,-0.010365202,0.067988121,0.130853574,-0.090794554,0.055395431,0.293131312,-0.104623528,-0.032606221,-0.181992416,0.373154916,-0.017892368,-0.15907074,-0.181118775,0.091452317,0.044627821,1.08632473,1.052538461,-1.777915399,0.016669011,-0.090330355
-0.789543774,-0.161897012,0.268295359,0.404607715,0.028498358,1.007155822,0.509556152,0.061021293,1.426226496,0.927021355,-0.095345237,0.34316862,-0.015109296,0.416683527,-0.048297007,0.052018008,-0.623529044,-0.131492364,0.007754197,0.376913015,-0.150350873,-0.065179068,-0.205101973,0.367294093,-0.026047556,-0.130469863,-0.717312584,0.142730349,0.052564424,1.05947763,1.108371763,-0.426045045,-0.002712272,-0.067912829
-0.630439101,-0.184215916,0.269206227,0.427073679,0.12569572,1.104400658,0.565195663,0.111187827,1.528842221,0.804694354,-0.127821497,0.364583481,-0.058248642,-0.303875033,-0.075614971,0.009092825,0.069946567,-0.168498491,0.054963928,0.45525646,-0.177741983,-0.075532588,-0.2278567,0.375873268,0.00077106,-0.138743002,-3.46339314,0.095354591,0.052164624,0.95336777,1.283954561,0.02007876,-0.003932589,0.005534776
0.518033902,-0.160562104,0.34574995,0.453102142,-0.071550411,1.193990991,0.627526492,0.160564898,1.575761425,0.796540714,-0.086057658,0.423938623,0.09002358,-0.269829785,-0.039381812,0.068937012,0.424618167,-0.156388207,-0.028495697,0.244113286,-0.141697919,-0.068441153,-0.206463734,0.407924053,0.032734614,-0.139478891,-1.24661647,-0.069358184,0.051601039,0.99299915,1.310190165,-0.021840195,0.092973826,0.121005996
0.229183194,-0.1614319,0.350060917,0.511209359,0.197582431,1.196854353,0.570590608,0.170475375,1.489517713,0.593279669,-0.090500893,0.378858938,0.051754723,2.107856105,-0.079372439,0.015203377,-0.197111239,-0.163868524,-0.081174994,0.469003223,-0.179022523,-0.09112247,-0.239635859,0.366573307,0.013191453,-0.136777202,-3.081645393,0.098653657,0.083087911,0.953048135,1.167611624,-0.045864051,0.055908201,-0.028885044
3.715674625,-0.139578108,0.306507248,0.502342718,0.056660414,1.156275403,0.555711627,0.101452664,1.423512446,0.345127177,-0.134806233,0.349737516,0.092066235,0.570872786,-0.085605319,-0.021490331,-0.679548467,-0.169511623,-0.046110148,0.34917989,-0.206177554,-0.108273152,-0.248808961,0.299291473,0.016559895,-0.140188033,-2.414556491,0.065598427,0.086842734,0.88732791,1.160316144,-0.90567596,0.07481286,-0.011383799
2.327375636,-0.22664902,0.351810854,0.514476337,0.045426747,1.123879886,0.47482246,0.05128613,1.31095649,0.237816903,-0.110282268,0.345918245,-0.056975581,0.355352908,-0.08172076,-0.009323804,-0.704083655,-0.168779589,-0.01690292,0.590388553,-0.181791618,-0.108256905,-0.251189617,0.301588748,0.015337666,-0.135609232,-2.410862949,0.068259115,0.107706762,0.82170801,1.220186697,0.080924509,0.055431577,-0.134323966
3.880709493,-0.162766808,0.306934311,0.529799275,0.004000978,1.073199987,0.376347062,0.091717501,1.190037463,0.212438179,-0.08197954,0.359715075,0.027106582,-0.323754707,-0.060915698,0.010438018,-0.752863153,-0.153285643,0.002330158,0.341019655,-0.172958689,-0.110975972,-0.251451619,0.260502713,0.018503227,-0.119282446,-2.503075678,-0.088483729,0.096374857,0.692505146,1.159240292,0.362933413,-0.002712272,-0.046984874
1.217117674,-0.184215916,0.353618568,0.548255812,0.0773733,1.005613028,0.408928382,0.090226782,1.095634761,0.096681031,-0.102771832,0.341141176,0.01723519,-0.323435059,-0.053225019,0.001042462,-0.710725723,-0.152594868,-0.069140672,0.348784666,-0.180293617,-0.080473439,-0.209087766,0.239873716,0.038235992,-0.091908779,-1.765497405,-0.04770545,0.106557024,0.579117178,1.160626982,-0.55204052,0.073592543,0.13426038
-0.937301559,-0.097549688,0.314036124,0.540126078,0.209308711,0.918686502,0.3058069,0.041550967,0.962255954,-0.092968133,-0.155241057,0.275908502,-0.005944966,0.655283138,-0.092690413,-0.025746792,0.682834983,-0.176276884,0.127407459,0.484767242,-0.2245519,-0.125456847,-0.255559206,0.178394448,-0.030509262,-0.141852827,-0.69203408,-0.081271532,0.059951689,0.431373674,1.025710279,-0.140737415,0.036050294,-0.154069063
-0.561989477,-0.183750804,0.138193716,0.497574599,-0.025034261,0.845910185,0.250951275,0.059530574,0.86332625,-0.209946911,-0.131840262,0.253443095,-0.101164778,-0.395836516,-0.093295244,-0.06362167,-0.889908706,-0.205578533,-0.087509378,0.409296641,-0.236081569,-0.12537965,-0.257609878,0.166074893,0.006738556,-0.103520916,-0.701752907,0.040022584,0.062514221,0.276810105,0.946807353,0.782334936,-0.042695155,0.065410654
3.565330351,-0.22664902,0.171534757,0.466490303,-0.080052487,0.780221391,0.268339737,0.010587374,0.792039682,-0.300939734,-0.106598519,0.218971219,-0.069087135,0.521225413,-0.121713832,-0.036479797,-0.304152621,-0.213142153,0.045460628,0.344403377,-0.250362371,-0.133819035,-0.266351944,0.138736978,-0.002764435,-0.113383827,-0.633539384,-0.001730568,0.063914893,0.182778165,0.995571942,-0.648791265,-0.005152906,-0.0883719
0.397308538,-0.205199912,0.197278016,0.448035407,0.041642254,0.714275396,0.223875258,-0.008533428,0.687544794,-0.349053389,-0.133483153,0.223682991,0.054116749,-0.401427207,-0.103543257,-0.064681062,-0.217069651,-0.218227731,-0.032345846,0.422136989,-0.262161867,-0.135905597,-0.271001956,0.118908976,-0.010651474,-0.107470947,-0.236383583,0.108968317,0.078997633,0.101274446,0.991023749,-0.542697725,-0.080237404,-0.149402156
-0.762273137,-0.22664902,0.175575057,0.422281716,-0.258071345,0.62736019,0.144511294,-0.000114222,0.542800985,-0.449976085,-0.152725327,0.182085793,0.050664001,0.260069632,-0.112326547,-0.062184197,0.014472818,-0.191752351,0.02404034,0.513433671,-0.246076715,-0.142282919,-0.260856724,0.080167036,-0.055150542,-0.122976818,-0.304624061,0.0433923,0.077445922,0.045245511,0.953344845,-0.84328251,-0.062076438,-0.141005594
-0.725854909,-0.18334612,0.086512672,0.407027869,-0.083777075,0.548013649,0.088734758,0.035844992,0.4514806,-0.518359441,-0.117891966,0.150256272,-0.087119722,-0.402332996,-0.13142751,-0.078799021,-1.175211765,-0.194772363,0.081747747,0.337752818,-0.244376924,-0.14973049,-0.286368697,0.055642975,-0.052770399,-0.126745558,-0.455872812,-0.000693709,0.079622795,-0.067715674,0.93664751,0.193229682,-0.064517072,-0.096138409
