CH1,CH2,CH3,CH4,CH5,CH6,CH7,CH8,CH9,CH10,CH11,CH12,CH13,CH14,CH15,CH16,CH17,CH18,CH19,CH20,CH21,CH22,CH23,CH24,CH25,CH26,CH27,CH28,CH29,CH30,CH31,CH32,CH33,CH34
8.56585393,0.33794896,-0.079393034,-0.067509782,0.159548512,-0.141774553,-0.223403749,0.568336133,-0.438359789,-0.099874978,-0.089961803,-0.188925024,-0.470254347,-0.070014484,-0.08533454,-0.269585513,-0.145226384,-0.052712524,-0.475642564,-0.413044671,-0.098494388,-0.282126302,-0.207822713,-0.237727898,-0.332168707,0.436703537,1.697400147,-0.235250274,-0.21034005,-0.138945294,-1.055800325,-0.936649108,#DIV/0!,-0.366241529
10.38315935,-0.933011977,-0.132579978,0.04582127,0.68330348,0.017281055,0.098592544,1.176609407,-0.340824494,-0.153485929,0.171000899,-0.175268836,-0.273543675,-0.001830396,-0.089836159,-0.271102379,-0.133582263,-0.050047623,-0.626848477,0.782854086,-0.192915621,-0.218677668,-0.111674847,-0.207396879,-0.231880191,0.535957034,1.66146178,-0.048168792,-0.185507888,-0.021789835,-1.080052555,-1.713893633,-21.62599564,-0.374454764
6.341482277,-1.469332754,-0.07868063,-0.315272714,-0.366856325,-0.151926736,-0.236251417,0.743412533,-0.540974491,-0.257987334,-0.472610245,-0.264607332,-0.381663434,0.029923434,-0.066699465,-0.192446972,-0.131986821,0.015487217,-0.398773995,-0.399533457,0.01211637,-0.25860958,-0.171527844,-0.2660277,-0.434030158,0.465255287,0.401987212,-0.250989296,-0.241235863,-0.120402604,-0.754595993,1.190885543,-4.29414225,-0.551728877
6.154134695,-0.967367963,-0.046012878,-0.23003005,-0.231723825,-0.240688922,-0.247874098,0.54612486,-0.579804483,-0.141308994,0.033923452,-0.23106378,-0.337424963,0.003689412,-0.052014911,-0.208873427,-0.143882409,-0.013701816,-0.360104224,-0.402527497,-0.02378661,-0.314923975,-0.265653653,-0.25010321,-0.394517555,0.42293373,1.692569829,-0.144434048,-0.24615507,-0.332401066,-0.410549343,-0.68428414,#DIV/0!,-0.118680919
5.876460771,1.165864376,0.004836513,-0.154646063,0.124090936,-0.244239034,-0.011534085,0.689013512,-0.506035968,-0.186982104,-0.330524656,-0.254642185,-0.023782024,0.012375152,-0.039816423,-0.148878752,-0.07663462,0.027811743,-0.234376586,1.248814085,0.127590041,-0.257584572,-0.22182502,-0.23229861,-0.435645055,0.417776628,0.674521644,-0.269434218,-0.281558274,-0.455504584,0.012949171,-0.073662402,#DIV/0!,-0.318628018
-0.392990486,-0.667466507,-0.033191255,0.101678537,1.000210791,-0.21618906,-0.265702476,0.583870771,-0.581841946,-0.143276931,-0.199590072,-0.212978586,-0.02779434,0.077111499,-0.077173907,-0.203774577,-0.068046939,-0.009710807,-0.437888315,-0.356148987,-0.009303796,-0.203402282,-0.051225855,-0.191291481,-0.331262239,0.474093141,1.610090721,-0.17009483,-0.216570297,-0.355065397,0.01742043,-0.100529858,#DIV/0!,-0.63385125
-0.571377197,-0.097468926,-0.135752045,-0.081464967,0.131683243,-0.142972668,-0.173438888,0.153121892,-0.601835173,-0.192800543,-0.430172726,-0.186952663,-0.144933374,-0.11657419,-0.117763914,-0.261492101,-0.092828715,-0.035626251,-0.560834501,-0.402209575,-0.011608455,-0.213915545,-0.091038715,-0.046824643,-0.079955679,0.406586636,0.75846388,-0.123702772,-0.194454275,-0.236262671,-0.650225574,-0.185306257,#DIV/0!,0.03205659
-0.652871932,-0.518545873,-0.136995762,-0.322817076,-0.755750817,-0.228475588,-0.044562121,0.274933648,-0.524217387,-0.240039287,-0.22254317,-0.260849389,-0.108694497,-0.031410262,-0.118411014,-0.231764899,-0.181002082,-0.093329199,-0.489085663,-0.447575214,-0.081670271,-0.276042437,-0.302731187,-0.27698362,-0.486970912,0.329741411,0.59490062,-0.015986203,-0.227306663,-0.347493798,-0.415703229,1.284409474,#DIV/0!,-0.395292351
-0.672533382,0.383180529,-0.083952163,0.129611151,0.890205438,-0.340670037,-0.109733268,0.68408894,-0.551276752,-0.219403781,0.038417932,-0.291359908,0.016923006,0.021900763,-0.071710264,-0.274898892,-0.249461451,-0.112774739,-0.488916221,-0.47636214,-0.123071578,-0.269467884,-0.281138303,-0.345410056,-0.560302517,0.249682006,0.798654126,0.001711683,-0.24991226,-0.523000896,-0.0629507,-1.552981539,#DIV/0!,-0.334528853
-0.732197537,-0.927820499,-0.149496493,0.183171999,0.150207529,-0.342377023,-0.049785726,1.099927478,-0.510572226,-0.190664353,-0.267268488,-0.316306788,-0.105108567,0.048934909,-0.128560689,-0.29539861,-0.297759922,-0.115776005,-0.592930238,0.699200957,-0.14928963,-0.254409823,-0.258263697,-0.227674678,-0.413417212,0.293834225,1.321169381,-0.069599971,-0.239707669,-0.578964354,-0.197491237,-0.721245708,-21.62599564,-0.674097366
-0.716626235,-0.965000388,-0.19645138,-0.308426565,-0.731057439,-0.252677954,-0.262205749,0.873033348,-0.54638742,-0.230568476,-0.056482075,-0.301543623,-0.146402383,-0.043007852,-0.150528886,-0.362597003,-0.321220002,-0.117726329,-0.80607689,-0.604105296,-0.171837474,-0.284333577,-0.217599515,-0.19536301,-0.281102066,0.365392827,1.452540446,-0.106634953,-0.179080956,-0.361970283,-0.305515551,-1.799490069,#DIV/0!,-0.172012729
-0.721684927,-0.45752088,-0.210531726,-0.293194224,-0.282084641,-0.222732623,0.057799958,0.570462115,-0.437385726,-0.255997871,-0.141429439,-0.294431686,-0.149105099,-0.170903478,-0.142728673,-0.369974608,-0.326461768,-0.054090031,-0.794240236,0.978986514,0.052593089,-0.226128354,-0.048448726,-0.15306825,-0.204769239,0.346116113,0.446569391,-0.220316544,-0.18722224,-0.317199824,-0.407832968,2.712569516,#DIV/0!,-0.116362013
-0.717057456,1.57621702,-0.224840187,0.274394774,1.002070828,-0.218406001,0.08669791,1.326918601,-0.368359734,-0.250141109,-0.168085407,-0.247187943,-0.100470633,-0.078228142,-0.122676451,-0.358113486,-0.317922566,-0.066355163,-0.814137309,-0.63003568,-0.048087902,-0.292929246,-0.193673846,-0.296375178,-0.364334676,0.357157353,1.044636034,-0.092237495,-0.166910825,-0.317199824,-0.485779063,-0.886547344,#DIV/0!,-0.393981368
-0.668175722,-1.411352441,-0.200876726,-0.198235035,-0.212769222,-0.204470963,0.069609723,0.469829376,-0.270869085,-0.223046882,-0.010553399,-0.187816456,-0.06243744,-0.078376383,-0.077832846,-0.317832352,-0.234937021,-0.098739562,-0.75022652,0.633601673,-0.116147719,-0.387188382,-0.349222506,-0.204900758,-0.315084499,0.375492359,0.995744922,-0.099876167,-0.164978907,-0.280847595,0.030711696,-0.175909562,-21.62599564,-0.187171105
-0.580030453,0.100419186,-0.201543702,-0.200608451,-0.048110856,-0.219604877,0.073121714,0.869306595,-0.271336749,-0.201823399,0.070398055,-0.163104019,-0.090522758,-0.039490907,-0.076569333,-0.277796015,-0.167319205,-0.002005861,-0.680889941,-0.474134183,0.020438014,-0.19337107,-0.031059065,-0.083322116,-0.18599588,0.395195473,1.244116199,-0.085945229,-0.174710888,-0.273368249,0.160311919,0.366755108,-21.62599564,-0.142799139
-0.537101781,0.57737339,-0.184611864,-0.169356506,0.155239198,-0.223032737,0.236639838,1.192514404,-0.237753763,-0.201385479,0.02594931,-0.155639531,-0.081028983,-0.041796624,-0.051442479,-0.270438643,-0.137492235,0.032603356,-0.6206176,-0.479771817,0.066824877,-0.246951345,-0.16170025,-0.163317016,-0.282543418,0.380667728,0.816261777,-0.189277005,-0.179745806,-0.302589299,0.40911286,-0.60282235,-21.62599564,-0.134315992
-0.48334416,-0.648276946,-0.098035423,-0.140505816,-0.41065695,-0.392327951,-0.057434718,0.609092903,-0.307349011,-0.187813749,-0.169074678,-0.152374764,0.016474136,-0.115873061,-0.002084472,-0.259570963,-0.16343705,-0.013885589,-0.474401482,-0.426616314,-0.085065594,-0.292883281,-0.277251071,-0.171395422,-0.339667332,0.274283677,0.940030997,-0.128860086,-0.20030645,-0.435430814,1.24702031,0.443586844,#DIV/0!,-0.467109067
-0.397801149,0.480410458,-0.060910682,-0.074355926,0.407894268,-0.37268986,-0.074483974,1.097616186,-0.325496932,-0.134886919,-0.300877821,-0.107725027,-0.081669444,-0.122187328,-0.010985546,-0.235493353,-0.11132523,0.036476618,-0.430380466,-0.358864152,0.075995979,-0.191895273,-0.092980636,-0.11981786,-0.290842607,0.326357055,1.045201042,-0.140854634,-0.197450005,-0.413507497,1.674750744,-0.589446823,#DIV/0!,-0.505503886
-0.356449389,1.612216429,-0.092813415,0.09270882,0.819503263,-0.192242558,0.048527676,0.684856167,-0.244992558,-0.187062783,0.079787242,-0.052898448,-0.058244491,0.125185175,-0.027178679,-0.19847644,-0.055221213,0.023591053,-0.584332841,1.997064932,0.006265085,-0.262350784,-0.195542942,-0.017606715,-0.095619727,0.416513949,1.020055712,-0.043980124,-0.159831495,-0.136394931,1.455390793,-0.302861475,#DIV/0!,-0.145694199
-0.325680311,-0.615453028,-0.084960732,0.145242266,0.376824684,-0.169805502,-0.114525532,1.153473912,-0.265206289,-0.161683895,0.257474897,-0.027934542,-0.021479736,-0.014260012,-0.039219294,-0.254990984,-0.024674223,0.085731818,-0.61790588,0.783071959,0.000213441,-0.283969821,-0.23194721,-0.097976089,-0.150679644,0.392921701,0.917759924,-0.048740413,-0.15412177,0.041890009,1.248547976,1.327692025,#DIV/0!,-0.343885727
-0.372696807,-2.135218882,-0.132339811,-0.22778668,-0.549074509,-0.128305077,0.052455525,0.503674679,-0.160398147,-0.172896929,-0.185506546,0.00966544,-0.062839719,-0.031034014,-0.013944758,-0.224785307,-0.021622895,0.034136477,-0.651374083,-0.444148281,-0.080823549,-0.322573582,-0.265627201,-0.139518542,-0.180846081,0.393674377,0.591954452,-0.183496879,-0.148498969,0.08149666,1.488888917,-3.740330576,-21.62599564,-0.229541363
-0.438542142,0.056451166,-0.159320541,0.24920193,1.295404895,-0.160080794,0.076658834,1.144013602,-0.152655193,-0.186585232,0.119285486,-0.012755626,-0.055349707,0.10454856,-0.044216482,-0.228792166,-0.073153759,0.043156943,-0.6828411,0.726958578,-0.017236035,-0.289756159,-0.221959558,-0.141940507,-0.170436445,0.386592166,0.910515514,-0.090245573,-0.145924015,0.041890009,1.034967806,-0.862764753,#DIV/0!,-0.320993011
-0.495556154,-1.411403672,-0.179241706,0.027876892,0.213371145,-0.179205457,0.028688499,0.957104469,-0.182633061,-0.185867483,0.117704943,-0.033445652,-0.092223784,-0.033522038,-0.083503001,-0.296132369,-0.094546477,-0.013824301,-0.711924162,-0.470836968,-0.120534738,-0.238501711,-0.115465064,-0.162315548,-0.231145434,0.362492753,1.322018006,-0.088213296,-0.14283135,0.073479128,0.815931924,-2.050397301,#DIV/0!,-0.510897794
-0.457714521,-2.199698376,-0.163033531,-0.1588228,-0.112226566,-0.20076048,-0.038619522,1.182667678,-0.245889921,-0.179020033,-0.148394153,-0.003144362,0.019990437,0.050287376,-0.041697174,-0.236134635,-0.066135659,-0.014107787,-0.687249983,0.737744811,-0.110064581,-0.268228996,-0.151307652,-0.197413806,-0.262726319,0.397982537,1.265586987,-0.04497123,-0.134702399,0.113200882,0.202729532,-0.511684404,#DIV/0!,-0.111152851
-0.466989374,1.57621702,-0.174680546,0.406713095,1.946040462,-0.191320251,0.081012377,0.980513524,-0.170772131,-0.187151109,0.025239153,-0.008815645,-0.129141492,-0.008943954,-0.026428524,-0.232332484,-0.028134587,0.062446974,-0.666102417,0.780749986,0.045970408,-0.196047371,0.000397849,-0.065801852,-0.031845861,0.463975324,-0.171646762,-0.086503851,-0.139381983,0.120852508,0.625378852,-0.761784366,#DIV/0!,-0.538270986
-0.481745401,-0.360286614,-0.201837172,0.014510449,0.106940054,-0.209800134,0.03182828,0.361076841,-0.225251049,-0.20639221,0.066141818,-0.016500203,0.000674279,0.040938323,-0.020845453,-0.218621167,-0.049169971,0.078433303,-0.695598114,-0.489462203,0.106391284,-0.251261799,-0.132603979,-0.105324042,-0.136429349,0.448337501,0.761472877,-0.193879791,-0.13340838,0.089514192,0.884465209,-1.94656049,#DIV/0!,-0.086580007
-0.454847986,1.247057349,-0.163878529,0.188632822,0.991427728,-0.225468022,-0.006704336,0.888359114,-0.227223766,-0.198386959,-0.16912076,-0.036985921,-0.096753938,-0.107787869,-0.027685736,-0.241010424,-0.04421623,0.011473272,-0.632947772,-0.436401564,0.003449756,-0.133964848,0.077724244,-0.057843284,-0.083723275,0.415188401,0.139799217,-0.155160617,-0.132669188,0.159110638,0.800983785,2.519630063,#DIV/0!,0.368561794
-0.399037401,2.429793657,-0.122558097,0.175486532,1.169367699,-0.248340289,0.077603253,0.785214143,-0.239554994,-0.197130004,-0.122798497,-0.021241966,-0.004751165,-0.068084219,0.040854591,-0.184583764,-0.017142154,0.061864188,-0.518564126,-0.441589934,0.124793509,-0.310885674,-0.271574954,-0.015879097,-0.11777628,0.396291391,0.244075077,-0.149485748,-0.149298807,0.152028461,0.595946686,0.834076223,#DIV/0!,0.258442287
-0.37753545,0.056451166,-0.068942559,0.297190196,1.048999674,-0.35778913,0.12440845,1.911092406,-0.225808074,-0.170288405,0.150026171,-0.042098423,0.076741977,0.053268028,0.082978627,-0.160029002,-0.053235968,0.070310717,-0.449010135,1.040766229,0.098005242,-0.204502164,-0.186414835,-0.178178795,-0.323238083,0.370548887,0.585244321,-0.033136095,-0.185983701,-0.218674481,1.537319988,0.266901034,#DIV/0!,0.055146213
-0.307327255,1.333265608,-0.134610966,0.282112791,0.8343979,-0.228363348,0.140991129,0.81785044,-0.212979259,-0.180578866,-0.142794974,0.014494832,-0.016873321,0.05980731,0.069598714,-0.170283768,0.007099187,0.080873561,-0.600996072,-0.44530389,0.054529663,-0.241235832,-0.18875724,-0.083388964,-0.1398224,0.389364347,0.022338931,-0.162769493,-0.124422716,0.089514192,0.705495613,1.998813432,#DIV/0!,-0.101874671
-0.334462085,2.51197203,-0.151884391,0.481458309,1.680451414,-0.187909915,0.163847227,1.058897167,-0.142202689,-0.189072248,0.082391925,0.016710282,0.051422574,-0.124632698,0.076462843,-0.215306778,-0.032190763,0.094516319,-0.608207607,-0.407078239,0.112230199,-0.105644272,0.144949176,-0.083144415,-0.087605946,0.419288153,0.067482778,-0.168343481,-0.123781453,0.081862566,0.703508169,0.330052355,#DIV/0!,0.014247487
-0.381549353,0.17963847,-0.188333251,-0.154331144,-0.193335278,-0.207059541,-0.107395668,0.591664889,-0.242524094,-0.214051895,-0.020892729,-0.019018653,-0.014330111,-0.053313325,0.026301766,-0.209772789,-0.030621582,0.052394424,-0.632686067,-0.432010431,0.07018428,-0.132355198,0.073878809,0.004162018,-0.016668929,0.455048624,0.498809046,0.010765527,-0.110923215,0.097165818,0.665407074,1.980477117,#DIV/0!,-0.130156683
-0.387573098,1.165864376,-0.206130815,-0.000724295,0.047728715,-0.184059863,0.082680116,0.168315256,-0.284594468,-0.211198434,-0.207229133,0.012755572,-0.024482989,-0.13802003,0.042890863,-0.228520211,-0.023164843,0.07182907,-0.631775046,-0.452593917,0.168225291,-0.266530757,-0.122969243,0.036780123,-0.029133174,0.457303099,0.540951915,-0.131874233,-0.119981681,0.11246907,0.531453841,1.581385243,#DIV/0!,0.302429737
-0.350574455,1.810155773,-0.18805636,0.093032964,0.583517203,-0.127493574,0.29217635,0.835523923,-0.130057684,-0.200956746,0.062538635,0.016877172,-0.002755261,0.073922558,0.083078977,-0.199697213,-0.007006342,0.13470656,-0.602234041,0.820767909,0.229014548,-0.093520023,0.159167208,0.017817108,-0.035361506,0.390744362,0.868280171,-0.135481433,-0.117085412,0.13615576,0.611934592,0.200921308,#DIV/0!,-0.012510188
-0.331470274,0.626041754,-0.175751601,0.252277753,1.059075679,-0.170410036,0.040141825,1.078768026,-0.236820578,-0.13041614,0.15385916,-0.056222521,-0.065050483,0.036250557,0.078576085,-0.181390054,-0.109824067,0.063857441,-0.435317248,-0.426424849,0.085651828,-0.201263946,-0.087256994,-0.07778047,-0.068579718,0.286049685,0.27489787,-0.016232828,-0.111756797,0.073479128,0.443019993,-0.94293267,#DIV/0!,-0.200505072
-0.384000197,1.824218844,-0.059098947,0.165673884,1.545708334,-0.424877922,-0.018131196,0.509509848,-0.296290838,-0.154809809,0.021975528,-0.130879837,-0.051973273,0.107183086,0.17180493,-0.097565564,-0.166461118,0.047943787,-0.212135032,-0.33185734,0.07315474,-0.183659469,-0.106846958,-0.2545484,-0.407405041,0.187890489,0.903840936,-0.0061956,-0.182585676,-0.485675967,1.92043701,2.444559593,#DIV/0!,0.568085064
-0.190119809,0.57737339,-0.063002995,0.18507199,0.815403841,-0.230997178,-0.056368746,0.380618795,-0.292015657,-0.12453984,-0.27401199,-0.009615823,0.037011669,-0.078663063,0.149040424,-0.193980265,-0.066523708,0.094078971,-0.392299814,-0.296557087,0.04007753,-0.122754596,0.152390829,0.079986501,0.07347342,0.347673309,1.344751439,-0.115680285,-0.060201134,-0.020483904,1.938857554,0.871894022,#DIV/0!,0.093953584
-0.020924538,-1.569662931,-0.03328249,0.104442644,-0.00531801,0.02769569,0.173554533,1.606880846,-0.094498228,-0.227089041,0.115217933,0.039037683,0.023895566,0.065278403,0.131979731,-0.179847743,-0.001422208,0.066729183,-0.426982596,1.297564384,-0.00382182,-0.236194943,-0.132076295,-0.126912531,-0.125409906,0.390373533,0.780574241,-0.086116237,-0.020758755,0.469977362,1.81674965,1.410159052,#DIV/0!,0.009989999
0.023090045,1.054263555,-0.029071059,0.193399467,0.750671112,0.125377359,-0.036830325,0.971320515,-0.072494976,-0.319084646,0.062511622,0.016744962,-0.011340522,0.046978599,0.084896796,-0.184915414,0.049607898,0.070161417,-0.498250937,1.148137485,-0.023491493,-0.174553293,-0.065747845,0.0629959,0.081630956,0.41558563,-0.021322252,-0.040983165,-0.011445199,0.665971836,1.376047941,1.115441476,#DIV/0!,-0.095917833
0.056323246,1.333265608,0.006723369,0.350486878,1.42390782,0.172986059,0.078521561,1.412023208,-0.015671932,-0.318491457,0.273652367,0.097297877,0.09000221,0.017055625,0.151058976,-0.177623923,0.09211696,0.155099881,-0.478094562,-0.288980368,0.175072295,-0.192415579,-0.109238061,0.107095314,0.039802559,0.492936113,0.478310135,-0.113987384,-0.01047228,0.66583189,0.726890857,3.121859789,#DIV/0!,0.423534599
-0.000310193,-0.097404888,-0.019745487,0.15442951,0.2426481,0.133455097,0.152074576,1.128449431,-0.041693167,-0.368526612,-0.2177742,0.093887912,0.097069773,-0.158567441,0.188041333,-0.192133254,0.06793114,0.10713933,-0.498999401,-0.255754323,0.134477799,-0.072882077,0.121240671,0.078174756,0.053245412,0.467091964,0.331393581,-0.100732577,-0.019621552,0.53667383,0.315642778,1.236002312,-21.62599564,0.196644394
-0.061927818,0.128609369,0.095557475,0.231804593,1.09781416,-0.204861549,-0.199621765,1.560037911,-0.193735738,-0.341275608,-0.063685806,-0.051266735,0.097203755,0.169594716,0.167446167,-0.057899542,0.002526751,0.078126799,-0.18968586,-0.219373937,0.058956903,-0.181465846,-0.174782227,-0.239526454,-0.47049847,0.222056943,-0.195168449,-0.111252391,-0.182071558,-0.451444648,1.434810742,-1.231834871,#DIV/0!,0.029265565
-0.110934853,1.389014787,-0.00817574,0.353424488,1.456879623,-0.100041015,0.127908052,0.488428652,-0.13473703,-0.181471341,-0.094913094,0.07962533,0.088521396,-0.058170602,0.158897045,-0.180147692,-0.020510432,0.105800472,-0.407718713,-0.264127598,0.115274424,-0.095593298,-0.007545967,0.055119639,-0.061388147,0.35424104,1.610750532,-0.062351051,-0.058714191,-0.243223604,1.637329112,0.032424522,#DIV/0!,0.095154772
-0.188344703,1.400259552,-0.026593771,0.34606947,1.059933651,-0.083771995,-0.030304187,0.324244405,-0.171834732,-0.190419802,-0.180613531,0.106761558,0.006936512,-0.121631647,0.157979229,-0.198333378,-0.047097752,0.046940869,-0.442633502,1.176100826,0.073306491,0.004314265,0.195459048,0.057501823,-0.111772958,0.32378491,0.663841534,-0.173284293,-0.088289136,-0.167612191,1.141686877,-0.75454943,#DIV/0!,-0.110567107
-0.268940812,1.810155773,0.021369485,0.304526432,0.717821445,-0.239177524,-0.093858175,0.627153117,-0.147806174,-0.177300525,-0.346241253,-0.012167601,-0.041338927,-0.130659492,0.105436012,-0.112358123,-0.097893679,0.05463166,-0.264856184,-0.272322112,0.156211993,-0.108329233,-0.076466187,0.027396686,-0.167655236,0.264052166,-1.060879478,-0.201476532,-0.170275528,-0.493874992,1.324790679,3.28734758,#DIV/0!,-0.221521332
-0.243933146,1.230704297,0.026579848,0.122979259,0.844097368,-0.194053724,0.163088396,0.736184112,-0.086574877,-0.155011883,-0.090901516,0.076783246,0.077275189,0.091920864,0.170838036,-0.092433363,-0.084583284,0.066507464,-0.257201465,-0.266356068,0.201256044,-0.093028074,-0.05772096,-0.023176803,-0.294162632,0.209923136,1.069827075,-0.099435369,-0.158362067,-0.471333866,1.745107674,0.365931836,17.33185387,0.302213216
-0.140852251,0.402788881,0.094889838,-0.066642203,-0.104175084,-0.195355265,-0.101759674,1.178944876,-0.146682222,-0.134895982,-0.077685401,0.076902976,-0.02303964,-0.06883671,0.197309375,-0.099021152,-0.023573899,0.143880386,-0.172096221,-0.213916384,0.309129997,-0.116931765,-0.031450621,0.066412033,-0.129217077,0.248836005,0.711635328,-0.113956063,-0.152307701,-0.383999217,2.386704707,-0.978954156,#DIV/0!,0.048658661
-0.042543434,0.656311002,0.106541795,-0.00997888,0.216560764,-0.158011979,0.014787667,0.571604114,-0.162837574,-0.122360614,-0.327124201,0.108825883,0.050441118,-0.100197719,0.218892004,-0.064675973,0.064100352,0.176816332,-0.119873556,-0.149471078,0.304521608,-0.114390156,-0.045146036,0.175102799,-0.039333661,0.251304659,0.657731829,-0.138662928,-0.135839798,-0.391570816,2.413284254,-0.391915332,#DIV/0!,0.081146475
-0.011019378,0.57737339,0.11762755,0.287433444,1.320258407,-0.171803586,-0.049702455,1.058666569,-0.192367302,-0.127760143,-0.135922535,0.118650366,0.02589689,0.110475903,0.226298916,-0.020395527,0.079326498,0.142205435,-0.148796949,-0.142675936,0.169968836,-0.080338744,-0.062386291,0.032725772,-0.235241926,0.274978967,1.172371576,-0.025545986,-0.120617662,-0.450283889,1.917025027,1.305893871,#DIV/0!,0.299692209
-0.025949705,0.157022686,0.092068221,0.136591211,0.498811807,-0.202496649,-0.103342448,-0.025285643,-0.257877146,-0.132260279,-0.315105361,0.164345474,0.060502178,-0.004680624,0.264845366,-0.075640857,0.067976252,0.192314042,-0.119053882,-0.101106601,0.332218323,0.016145385,0.166021443,0.158581973,-0.016184099,0.299871301,0.25132994,-0.162568335,-0.13050807,-0.508437944,1.587116453,-0.615342167,#DIV/0!,0.229595026
-0.050937614,-0.178518828,0.094356349,0.10893886,0.577045269,-0.18256205,-0.055476596,0.81571306,-0.191166274,-0.124177633,-0.067299625,0.142931649,0.051056558,0.049650919,0.227830911,-0.055972928,0.079760991,0.092349205,-0.144328787,-0.117918603,0.163377859,-0.062558618,-0.021791509,0.125181363,-0.079234162,0.30968176,1.179961146,-0.108651265,-0.131867149,-0.501156468,1.40820929,-0.0780701,#DIV/0!,0.099544672
-0.039715249,1.824161921,0.124344011,0.02445788,-0.017760441,-0.196080994,-0.037639705,1.178452421,-0.216924028,-0.151122255,-0.274891877,0.12807767,0.009728411,0.022546985,0.229813434,-0.027840984,0.10141955,0.154980577,-0.10520719,-0.087008695,0.251056988,-0.041926661,0.03989054,0.290122243,0.060313881,0.242760465,1.463058469,-0.1747689,-0.136378227,-0.551237346,1.648130129,2.489877053,#DIV/0!,1.037009586
-0.037059187,0.561150602,0.076981975,-0.054423868,-0.010470795,-0.135095959,0.127795458,1.156543184,-0.165237306,-0.133435591,-0.032937448,0.15371355,0.027574958,-0.117890594,0.239735581,-0.10918122,0.092674348,0.216448984,-0.227448349,-0.143092565,0.295552097,-0.145385703,-0.023935265,0.256996644,0.143929288,0.370229891,1.198640664,-0.178808308,-0.093348511,-0.434776793,1.634896991,-1.21234429,#DIV/0!,0.095219332
-0.063056666,1.57621702,0.069875741,0.016414013,0.130901811,-0.169308634,0.011205881,1.034219524,-0.200108543,-0.163412463,-0.1909694,0.093342821,-0.059198804,-0.140433883,0.214452449,-0.064332139,0.086945089,0.227979248,-0.153014739,-0.121706514,0.362987754,-0.049958987,0.049595151,0.108862673,-0.071083493,0.282030053,0.352122831,-0.168604001,-0.123144934,-0.520348101,1.558292708,1.740776737,#DIV/0!,0.730489671
0.003010695,0.379485278,0.112704913,0.148306256,0.681726281,-0.149290006,0.082813241,0.84852501,-0.1913184,-0.133233915,0.009335121,0.115927565,0.042861763,-0.04051382,0.221680861,-0.062716664,0.076612412,0.186377786,-0.164625522,-0.12084612,0.255965638,-0.02110107,0.059164047,0.101337041,-0.060521232,0.261388591,1.491081761,-0.105346434,-0.109419793,-0.565610292,1.896860612,1.13582726,#DIV/0!,0.27785346
0.041895765,0.904312827,0.126793254,0.321711353,0.916239135,-0.152636989,0.026168685,1.381445007,-0.211438368,-0.102554708,-0.102788025,0.188992047,0.068852339,0.000714878,0.271910115,-0.047599851,0.137454972,0.152283692,-0.123520074,-0.104007089,0.225161359,-0.038275393,0.031845285,0.132287054,-0.015502723,0.316599837,1.118615042,-0.046308357,-0.100516379,-0.530187369,1.694178949,2.724690878,#DIV/0!,0.367999924
0.053493941,-0.367451203,0.164966998,0.130042509,0.63976381,-0.139472917,0.144627389,0.980864422,-0.156853791,-0.100957105,-0.011184162,0.157758905,0.047370585,0.026548801,0.26924859,-0.007823995,0.158137469,0.176171561,-0.142697597,1.133232626,0.203631725,-0.071373132,0.050802555,0.102752015,-0.107750921,0.332938833,1.022720551,0.019916139,-0.116710701,-0.515624417,1.521356647,0.449365354,#DIV/0!,0.365379247
0.056381566,0.33794896,0.085385246,-0.138510945,-0.545642846,-0.084802392,-0.042046791,0.67383247,-0.240371922,-0.133986039,-0.15347203,0.213737858,0.112763771,0.158820543,0.296365982,0.001355366,0.172452245,0.197476837,-0.241342211,-0.110032466,0.201279136,-0.096164702,0.047682475,0.176758877,0.011725883,0.369673669,1.695308188,-0.020427281,-0.083518032,-0.435536431,1.47962111,1.011749372,#DIV/0!,0.318302729
0.014312495,-0.615453028,0.0347416,0.195525823,0.377505519,-0.022397409,0.076123945,1.095801802,-0.148420004,-0.151914445,-0.097233388,0.2093743,0.135464971,0.094295115,0.269608949,-0.04315553,0.141523425,0.205826045,-0.251660608,-0.137909433,0.205255061,-0.052727271,0.022145612,0.164572148,0.054322575,0.251142663,0.637672159,-0.088513783,-0.083110784,-0.361864666,1.132673311,0.913143564,-21.62599564,0.176446406
-0.047073688,0.056508089,-0.002907186,0.25115554,0.431896379,0.011462801,0.262100877,1.063412193,-0.041102851,-0.154316785,-0.141675891,0.202033864,0.046520599,-0.102248536,0.237614092,-0.051252937,0.115236697,0.197519729,-0.275015738,1.095876477,0.286345001,0.004679505,0.267431113,0.111475623,0.071591931,0.293561369,0.533542019,-0.142094389,-0.087517026,-0.361864666,0.803479535,-2.29237455,-21.62599564,0.187520082
-0.105257982,1.020899506,-0.033949862,0.134661699,0.744483193,-0.030484769,0.062516636,0.486940367,-0.138720752,-0.152650456,-0.3407,0.213492769,0.051539645,0.023377681,0.23044095,-0.054438723,0.126122789,0.133766213,-0.295821897,-0.14941159,0.23725766,-0.047052778,0.077455126,0.210675269,0.182777597,0.325142325,-0.089382652,-0.136847037,-0.078852026,-0.332052899,0.844392997,-0.35839522,-21.62599564,0.38436051
-0.133845736,-0.583437025,-0.020907781,-0.073786365,-0.067983691,-0.011562344,0.016407121,1.66693364,-0.075469847,-0.137843781,0.22533141,0.160894613,0.117893523,-0.094300088,0.195970007,-0.108797695,0.108577733,0.165261439,-0.322101901,-0.163557019,0.206642758,-0.135215815,0.005644375,0.163812345,0.040077651,0.283766759,1.073347471,0.033842687,-0.069274913,-0.332052899,0.803346891,2.334914776,#DIV/0!,0.195695713
-0.147332789,-0.015593191,-0.013013476,0.593788063,1.503841268,-0.005933581,0.169946242,0.42573843,-0.020013122,-0.161264839,0.001045876,0.134564017,0.064650936,-0.007095943,0.176472991,-0.129338398,0.074186861,0.162909405,-0.361776539,2.590040317,0.189412599,-0.166649544,-0.163747828,0.167265073,0.064917734,0.250031087,1.579985059,-0.129895022,-0.078877481,-0.339532245,0.927359496,2.550372466,#DIV/0!,0.322215829
-0.214616233,0.65848733,-0.054700754,0.234124532,0.762256122,-0.033360863,0.072564157,0.127600056,-0.082578063,-0.175802993,-0.360906417,0.132548327,0.024894418,-0.153228054,0.184321315,-0.126107267,0.031407554,0.116293032,-0.425632131,-0.249289616,0.142998345,-0.123887866,-0.079517284,0.082691703,-0.024714505,0.248327826,0.905746931,-0.180412058,-0.080214684,-0.3620759,1.189088435,1.839883946,-21.62599564,0.272013273
-0.273185642,1.152314651,-0.099418091,-0.285563546,-0.152597181,-0.091326929,-0.098900517,0.818989568,-0.141973283,-0.183107486,-0.183716543,0.083907965,0.020570779,-0.161719289,0.112238775,-0.171268426,-0.015102289,0.0969674,-0.459549698,0.950944541,0.181385945,-0.091157045,-0.0063229,0.071784347,-0.031074456,0.279924658,-0.010582452,-0.076732884,-0.076701161,-0.354490937,0.993800084,2.251230018,-21.62599564,0.560994423
-0.273105886,0.625990523,-0.088005659,-0.044541129,-0.009245182,-0.050097084,0.117781813,1.002923245,-0.07923822,-0.152802146,-0.069354121,0.143600052,0.062592965,-0.132450686,0.164330779,-0.136957259,-0.021078425,0.128542804,-0.444153274,-0.268726843,0.256194785,-0.06911294,0.104166173,0.224611209,0.078126801,0.290505795,0.264648076,-0.122831235,-0.081155561,-0.302589299,0.608013685,0.949666597,#DIV/0!,0.845802884
-0.223701071,0.856375443,-0.075032198,0.162147524,0.448133383,-0.053463716,0.084564977,0.702314709,-0.0498612,-0.137570863,-0.170051164,0.089408539,0.042007771,-0.12142539,0.123416999,-0.119140277,-0.024662826,0.082793295,-0.46516686,-0.302450252,0.089948447,-0.15003592,-0.10119886,0.037589051,-0.084822952,0.293271883,0.453836573,-0.041583106,-0.070674768,-0.332158516,0.720411881,0.072138363,#DIV/0!,0.064853622
-0.260115253,1.400316476,-0.105135443,-0.294818113,-0.716307767,-0.068333099,0.096927296,1.445841867,-0.049513865,-0.139829861,-0.094591721,0.070095018,-0.031268322,-0.078085413,0.12453007,-0.150901168,-0.034027352,0.083105655,-0.476898786,-0.304792186,0.090437229,-0.114851099,-0.062058427,0.146598174,0.089345192,0.317099354,0.581599159,-0.235864283,-0.079155813,-0.369449629,0.643729114,0.289292108,#DIV/0!,0.109462495
-0.268169577,-0.191493736,-0.070492005,-0.003935727,0.084345403,-0.057978927,0.218626725,0.728415423,-0.055516253,-0.164177075,-0.140897378,0.104979006,-0.091982122,-0.077062933,0.145405173,-0.163956816,-0.062203609,0.098359005,-0.464424658,-0.307859218,0.142716215,-0.097719823,0.028151731,0.192117865,0.039678469,0.271947394,1.228150941,-0.149439212,-0.072622491,-0.339532245,0.648456043,0.024681886,#DIV/0!,0.429001622
-0.168614431,0.552397891,-0.014632063,-0.19313118,-0.134457985,-0.072524136,0.117530014,0.992390789,-0.057002493,-0.150859485,-0.140721816,0.103347621,-0.057461467,-0.084986419,0.158773944,-0.126368608,-0.014418606,0.097082433,-0.367817715,-0.269498314,0.098916131,-0.182001123,-0.161329509,0.176211594,0.018800226,0.316627594,1.0051165,-0.01853637,-0.068694747,-0.309963028,0.892610951,1.214929222,#DIV/0!,0.48363441
-0.108166584,-0.178582866,0.11093857,-0.016891056,-0.065817488,-0.29031142,-0.240237103,1.234914649,-0.186069812,-0.190008724,-0.034073077,-0.021937558,0.019389441,0.090444331,0.177299228,-0.038207581,0.015193353,0.105514278,-0.119366947,-0.15727408,0.119642863,-0.120115194,-0.207459328,-0.082958704,-0.389898937,0.156532881,0.646533118,-0.018934454,-0.172532513,-0.792914225,2.862964071,1.225195546,#DIV/0!,0.256095529
-0.033954798,0.019369285,0.103980392,0.088143184,0.56988446,-0.206744904,-0.084294149,0.929496997,-0.146818226,-0.071775581,-0.007717787,0.109268888,0.014784007,-0.019051063,0.205323382,-0.058817208,0.074710964,0.18358958,-0.167014618,-0.106957142,0.249989836,-0.068991938,0.029781589,0.18985895,0.034242333,0.283583088,1.413305991,-0.165305973,-0.097933256,-0.529400235,1.892127168,2.139838565,#DIV/0!,0.177089121
-0.056251953,0.480410458,0.105845072,-0.010293795,0.182057378,-0.215940393,-0.036760649,0.037668523,-0.119410511,-0.111875942,-0.447232526,0.076228637,-0.071062983,-0.245842552,0.214320396,-0.009826627,0.095696632,0.225321716,-0.059872628,-0.056529121,0.324487111,-0.045485861,-0.004265532,0.192380809,-0.079083474,0.271236646,-0.05451693,-0.162383594,-0.137229494,-0.668579221,2.327602507,4.003349662,#DIV/0!,0.78604591
-0.084428161,-0.425075304,0.1237603,-0.015825163,-0.138263575,-0.204719491,0.072663931,1.321199345,-0.105648992,-0.15595572,-0.078166034,0.097289082,0.070192343,0.195640512,0.231292543,-0.009385892,0.062895175,0.15802052,-0.121533962,-0.066956358,0.122342222,-0.037440542,0.016926835,0.151473746,-0.194018233,0.220062127,0.905573149,0.039834244,-0.144155565,-0.668601095,1.839371525,0.332782478,#DIV/0!,0.49100313
-0.098452706,-1.569662931,0.119306829,-0.171469444,-0.230527526,-0.212106835,-0.070483769,0.49295365,-0.203279772,-0.140638431,-0.146460532,0.063737466,0.01425185,-0.022310376,0.220260727,-0.023289003,0.069642035,0.148357705,-0.096709778,1.127302114,0.17016345,-0.10455549,-0.112202746,0.156222316,-0.212583429,0.242294081,0.076032493,-0.157572411,-0.163965884,-0.647916496,1.432356628,1.415575202,#DIV/0!,0.615109639
-0.084869016,-0.964949157,0.116798946,-0.176060677,-0.429611538,-0.156621105,-0.047502068,0.888760642,-0.118569803,-0.11894338,-0.117273133,0.115120749,0.071172626,0.042330069,0.215295603,-0.023676425,0.071037505,0.206681543,-0.112154748,-0.074768007,0.301126634,-0.00896891,0.070921217,0.11002726,-0.161885701,0.243301282,0.72308219,-0.146277627,-0.134551148,-0.586150827,1.512394881,1.456953006,#DIV/0!,0.462452771
-0.12221234,1.61226766,0.04472245,0.178163619,0.709972429,-0.115616137,0.189072963,0.925788888,-0.086549307,-0.110706421,-0.344020211,0.139123005,-0.016384789,-0.071554425,0.205213511,-0.057063385,0.072629756,0.20054976,-0.186791678,-0.06990018,0.312611187,0.0365774,0.263904011,0.283004982,0.106969768,0.308608998,0.089756509,-0.097916068,-0.087115309,-0.523000896,1.460714318,1.235202496,#DIV/0!,0.897734901
-0.177803593,-0.543351748,0.021129891,-0.711381961,-1.213592065,-0.140805394,-0.090857693,0.23142334,-0.191952716,-0.121685812,-0.338648097,0.053821678,-0.063336894,-0.027133869,0.13849074,-0.076009021,0.034921637,0.148777147,-0.213553496,-0.120887007,0.260409774,-0.025312539,0.147521635,0.332886202,0.152611732,0.275854287,0.77565584,-0.187433334,-0.091206494,-0.486688519,1.468209417,3.23370708,#DIV/0!,0.419637525
-0.184509623,-0.43949556,0.06604366,0.236348719,0.61326762,-0.126766344,0.030047115,1.59689555,-0.144540601,-0.107708332,0.031951328,0.110479259,-0.028493839,0.112497756,0.198932402,-0.073809179,0.019808842,0.100507557,-0.277795017,-0.169180393,0.080147498,-0.113825313,-0.104141785,0.220857295,0.02771153,0.293656335,1.159236635,-0.055562492,-0.087416493,-0.413507497,1.515706942,1.22689174,#DIV/0!,0.362687119
-0.129617316,0.02132798,0.068816064,-0.444598191,-1.266686093,-0.110775826,0.037274145,0.605657653,-0.106261522,-0.105210913,-0.270444248,0.067156902,-0.071906727,-0.048287002,0.167099402,-0.07808987,0.053728002,0.156622429,-0.249816122,-0.120990155,0.148860079,-0.096857789,0.008987914,0.076145032,-0.088801906,0.316480664,0.762593744,-0.017830144,-0.087322707,-0.406318274,1.764508199,3.13333256,-21.62599564,0.3423556
-0.116207644,0.942662734,0.047442897,0.325909389,0.911668747,-0.062750418,0.079826325,0.961900354,-0.11599428,-0.115014292,-0.014470534,0.089928042,0.032225213,0.026901526,0.201985495,-0.083711709,0.069039592,0.192176258,-0.341187785,-0.177304543,0.193889185,-0.127610037,-0.05325201,0.233576582,0.074772155,0.326888334,1.527963121,-0.111751965,-0.057437423,-0.19950526,1.812705885,0.211612722,#DIV/0!,0.491214247
-0.110078844,-0.583437025,0.052252178,-0.216082022,-0.640624418,-0.056514858,0.018675138,0.590615341,-0.139208173,-0.138939488,-0.336533699,0.050637649,0.013543,-0.054093557,0.190472342,-0.070562843,0.072660985,0.187344413,-0.297111375,-0.143576579,0.098936394,-0.037666123,0.142016999,0.249344441,0.091070863,0.320502654,1.388660957,-0.086893776,-0.071093472,-0.177010207,1.417154,1.081066169,#DIV/0!,0.430845461
-0.049813941,-0.863397929,0.077210333,-0.140971419,-0.329619032,-0.063612879,-0.02925529,0.675928628,-0.157420173,-0.117853998,-0.243111486,0.062426487,0.028343856,-0.059128782,0.198199157,-0.100823177,0.118388477,0.154791852,-0.215024922,-0.10116073,0.098839694,-0.133515993,-0.10023629,0.131553247,-0.037253693,0.277653127,1.278499156,-0.111365651,-0.076055507,-0.169879028,2.080647171,0.028565194,#DIV/0!,0.087763968
-0.012266646,-1.569765393,0.071338783,-0.249299112,-0.735785982,-0.072473991,0.00047164,-0.16418866,-0.169710385,-0.115136281,-0.243391346,0.054435444,-0.015752234,0.073032294,0.144183295,-0.050812562,0.179897204,0.172233938,-0.173137751,-0.075649559,0.16133339,-0.109312583,-0.117414943,0.145275762,0.026697618,0.26056001,1.019112756,-0.196208167,-0.085414623,-0.162094098,2.444952714,1.934680453,#DIV/0!,0.188055224
0.007498317,0.480410458,0.104176141,-0.01846282,-0.075568629,-0.085684778,-0.059927598,1.242682676,-0.191993378,-0.082977006,-0.115491192,0.103858605,-0.026679632,-0.125281749,0.205067898,-0.034601895,0.207025101,0.198281043,-0.123619129,0.001076287,0.279763278,-0.034749109,0.049210911,0.165113588,0.030262778,0.299005074,0.511816072,-0.088970723,-0.080174807,-0.146730224,2.776584589,0.474705875,#DIV/0!,-0.02802112
0.005329998,-0.097468926,0.090714602,0.007464399,0.384706392,-0.081166923,0.045642213,0.067321172,-0.101233854,-0.10678539,-0.48165814,0.079983467,0.00160266,-0.000218841,0.197804978,-0.036290612,0.178890063,0.220998219,-0.169824646,-0.047937588,0.153126988,-0.069266007,-0.105044103,0.208269676,0.090385077,0.267693717,1.076482077,-0.149205896,-0.085845115,-0.200056018,2.394393903,-0.421268774,#DIV/0!,0.486276949
-0.056445808,0.402840112,0.074108506,-0.175643494,0.116546767,-0.098777647,-0.004750147,1.186907634,-0.170522174,-0.101560762,0.027886912,0.077632135,0.02221869,-0.034586065,0.192693741,-0.054440223,0.134814796,0.154118502,-0.20205543,-0.060958915,0.13152543,-0.049826225,0.03609783,0.161446878,0.013778728,0.244003705,1.229917454,-0.156845813,-0.078330562,-0.192374081,3.373976302,-0.079120587,-21.62599564,0.285667673
-0.080420732,0.17963847,0.070774262,-0.399645367,-1.237069439,-0.090482842,-0.035144186,0.478587562,-0.151909947,-0.122091035,-0.279114911,0.101776592,0.0618162,0.038577961,0.19392785,-0.037785912,0.120317601,0.171307314,-0.218476131,-0.092904912,0.188198814,-0.072453332,0.036992067,0.114318235,0.020247708,0.328372266,1.125744471,-0.133179314,-0.080491237,-0.185242902,2.305302155,-0.629872901,-21.62599564,0.199482322
-0.072425756,-0.178518828,0.082914847,0.101518855,0.274423568,-0.072869194,0.043586836,1.094152804,-0.092198702,-0.099149864,-0.07426165,0.098751766,0.051464719,-0.148262615,0.184692402,-0.049321966,0.136876486,0.174857444,-0.241648641,-0.076082115,0.200691231,-0.00654973,0.114839766,0.156556341,0.05382486,0.349051689,0.648263631,-0.222760545,-0.077978551,-0.192374081,2.168889779,1.598258345,-21.62599564,0.055800128
-0.145948803,-0.324796358,0.039913383,-0.237672995,-0.677531995,-0.120363552,-0.259866251,1.132929066,-0.186168707,-0.136374875,-0.307279387,0.04207109,-0.004797081,-0.030592499,0.157637897,-0.079887105,0.064544485,0.183101916,-0.315080798,-0.187553782,0.167256912,-0.198196961,-0.196714782,0.082875993,-0.007436485,0.281465617,0.751361959,-0.211907251,-0.086163472,-0.237364187,2.09092363,2.516639675,#DIV/0!,0.191524208
-0.260181989,-1.029789078,0.073677706,-0.53598347,-1.236942244,-0.223178697,-0.123145123,-0.16479854,-0.181886408,-0.295153623,-0.4034165,-0.126575676,0.019165194,-0.078426289,0.148809304,-0.049127108,-0.008108354,0.130017824,-0.195216743,-0.177192922,0.093136196,-0.127258228,-0.142473562,-0.153660041,-0.416059545,0.191902171,-0.568306917,0.001367116,-0.145782169,-0.434858432,1.992764114,0.893101849,#DIV/0!,0.045686189
-0.259266381,-0.191493736,0.062941684,-0.364759408,-0.468636154,-0.23140928,-0.007236261,-0.041026276,-0.176325897,-0.130210113,-0.239506604,-0.046349795,0.042370579,-0.030702279,0.127629075,-0.004041105,0.009511429,0.152424037,-0.186821356,-0.179628244,0.172528134,-0.068815863,-0.075440225,0.032419177,-0.1620208,0.212384857,0.499240965,-0.107388793,-0.16383255,-0.501156468,1.914614129,-0.49072964,#DIV/0!,-0.095853505
-0.274459644,-1.039355397,0.034917898,-0.124748322,-0.485064121,-0.239051388,-0.123543751,0.212890496,-0.206248495,-0.146899876,-0.298352532,-0.042215409,-0.02035259,-0.069734661,0.107376985,-0.022643851,0.023822631,0.093441927,-0.191337756,-0.152219272,0.124153493,-0.062916057,-0.059534133,-0.159951144,-0.345125476,0.194019343,0.499656513,-0.090048627,-0.152591176,-0.508437944,2.162419712,1.46865533,#DIV/0!,0.005229904
-0.227304209,-0.706257259,0.00830779,-0.102287777,-0.558539779,-0.103725627,-0.041394799,0.564677657,-0.132619192,-0.145764726,-0.246346133,0.033327665,-0.018737488,-0.046732844,0.096713217,-0.088149531,0.043660302,0.145648545,-0.393645093,-0.190894655,0.08276326,-0.114756527,-0.074665388,0.028634453,-0.025819512,0.344186637,0.814137913,-0.081406486,-0.102109517,-0.170339771,1.782401477,0.088697854,#DIV/0!,0.198525877
-0.175721953,0.625990523,-0.0290856,-0.20323724,-0.891638513,0.075805708,0.077543098,-0.306103998,-0.069050449,-0.252894258,-0.396734843,0.043108571,-0.023238724,-0.107785452,0.110856743,-0.136745907,0.087444671,0.174567062,-0.469500487,0.968951212,0.143661411,-0.214536919,-0.243654284,0.055451831,0.077414411,0.351933602,-0.923266652,-0.005191685,-0.063546265,0.273999664,0.818463496,0.609233864,#DIV/0!,-0.549885511
-0.163250606,-0.518545873,-0.003951631,-0.019184901,0.03871446,0.166625878,-0.022045172,0.615717362,-0.016063389,-0.341903933,-0.107820849,0.043983246,0.036594564,0.113730515,0.111533982,-0.12823223,0.074605757,0.153605718,-0.577730452,-0.271496643,0.086177809,-0.087925195,-0.003657296,-0.002265437,-0.078008329,0.314129305,-0.182916601,-0.021283781,-0.040400428,0.621935936,0.530074022,0.24033467,#DIV/0!,-0.173250191
-0.122931357,-0.648276946,-0.02709665,-0.525296091,-0.926526512,0.092271933,-0.226288281,-0.070247395,-0.156035502,-0.329112011,-0.332488792,0.03862228,-0.018314692,-0.044065874,0.130065102,-0.130414298,0.089023385,0.190268975,-0.60641598,-0.29905101,0.191731918,-0.099507324,0.035490495,-0.001892859,0.021398755,0.39232258,-0.04952314,-0.008821895,-0.016819096,0.903860011,0.183330591,-0.310435194,#DIV/0!,0.092446305
-0.076454434,-1.346461289,0.012510332,-0.299448861,-0.931728968,-0.004151177,-0.00571949,0.648514305,-0.090998821,-0.203800185,-0.092736456,0.119506071,0.045862648,-0.128702703,0.188634153,-0.111278904,0.122012419,0.224470164,-0.527221963,-0.277842187,0.287109151,-0.101584901,0.037536897,0.178443926,0.216011005,0.38240382,-0.226312952,0.022988683,-0.010532195,0.838616958,0.254200726,0.965352472,#DIV/0!,0.26518093
-0.09612369,-0.360184152,0.038491803,-0.352204356,-1.001710165,-0.023047129,0.066074835,0.775774241,-0.106355533,-0.205202732,-0.314258263,0.021283712,-0.062489996,-0.180054233,0.113696638,-0.135117975,0.076638402,0.165990069,-0.568147617,-0.316438982,0.170682278,-0.166489017,-0.071198132,-3.6822E-05,0.03901736,0.378464307,-0.162909292,-0.011593608,-0.011061875,0.756056408,-0.329598596,-3.048606933,#DIV/0!,0.027966549
-0.202675352,-1.311022264,0.006258877,-0.706715283,-1.854382063,-0.066806531,-0.196877408,0.527898314,-0.203993001,-0.216887693,-0.227086643,0.039763734,0.014409636,-0.078393127,0.146111207,-0.153008498,9.1717E-05,0.085259476,-0.651039118,0.842343492,-0.012201776,-0.17511297,-0.129465587,-0.063830245,-0.027678891,0.346525587,-0.351589509,0.010750892,-0.013856673,0.68365288,-0.172120875,0.69799285,#DIV/0!,-0.400622043
-0.226389059,-1.25299072,0.012486134,-0.382092438,-1.088694844,-0.056999623,-0.159400825,0.155214931,-0.169025098,-0.225436824,-0.25652829,0.052957615,-0.014146516,-0.096239956,0.147160073,-0.170016541,-0.020068572,0.09422948,-0.678939938,-0.405580167,0.043458916,-0.189233247,-0.064376205,-0.037605208,0.071009156,0.339609226,-0.577134988,-0.010134023,-0.013662659,0.701753762,-0.127334054,0.46406713,#DIV/0!,-0.523390172
-0.275268247,-1.039355397,0.008476328,-0.478520301,-1.683070536,-0.039127325,-0.01380382,-0.122761765,-0.135734549,-0.25155306,-0.468684874,-0.007152124,-0.09908516,-0.12549366,0.106414396,-0.223412858,-0.042694052,0.139971488,-0.695133354,-0.409940469,0.168332163,-0.129542342,-0.026992215,0.079308436,0.139822552,0.346495314,-1.154666472,0.058655901,0.001304861,0.674742385,-0.189998287,0.655464189,#DIV/0!,0.019699091
-0.380937346,-2.520449812,-0.054607085,-0.661847773,-1.570977778,-0.05005359,-0.161603601,0.282461817,-0.138561946,-0.265010851,-0.248931932,-0.049653346,-0.071654389,-0.039451504,0.079782038,-0.246171539,-0.11969347,0.009037814,-0.844332849,-0.486650798,-0.112318718,-0.172106677,-0.044555244,-0.21632446,-0.244927274,0.339567406,-0.591344117,-0.03223102,0.001663527,0.639100405,-0.177614699,-2.46401236,#DIV/0!,-0.45604237
-0.410174827,-0.119563226,-0.066363812,-0.407281155,-1.295800651,-0.049456635,-0.057324508,0.418741698,-0.151103586,-0.267676002,-0.255732762,-0.041729485,-0.062276295,-0.161510425,0.082166498,-0.252164853,-0.127134107,0.060075615,-0.834596811,-0.500079999,0.056864176,-0.074702112,0.141424466,0.036552418,0.062084067,0.319823042,-0.587862007,-0.08295032,-0.00491214,0.6480109,-0.400693737,0.871245806,#DIV/0!,0.318606608
-0.42300931,-1.569714162,-0.054495449,-0.700355766,-2.091992182,-0.067090087,-0.208601094,1.297960784,-0.199267762,-0.266486081,-0.088467727,-0.037255606,-0.093770939,-0.154985329,0.086391272,-0.268176632,-0.15954691,-0.001686047,-0.907239365,-0.578427159,-0.155752463,-0.261468456,-0.225202177,-0.020677464,-0.035657749,0.322194438,-1.486252824,0.001393246,-0.003262633,0.63018991,-0.430429359,2.073082982,#DIV/0!,-0.387614855
-0.367234792,0.304509913,-0.032697235,-0.267550854,-0.744592293,-0.057958621,-0.112425146,0.432140507,-0.145250636,-0.260077973,-0.307705168,-0.044081913,-0.071661763,-0.088501402,0.079724141,-0.215884471,-0.102995656,0.126626854,-0.818857897,-0.531556095,0.222700576,-0.153354207,-0.051744926,0.072412893,0.086753522,0.407669172,-1.380219876,-0.032437294,0.009035098,0.639100405,-0.260179787,0.36821266,#DIV/0!,0.385182843
-0.366881494,-1.03941232,-0.062049396,-0.650464612,-1.76516468,-0.031073912,0.142951433,0.647964942,-0.082817401,-0.267431873,-0.38096647,-0.047732005,-0.054124226,-0.07089275,0.086172179,-0.252348883,-0.125630277,0.077790804,-0.847402906,-0.581066768,0.065252391,-0.285050681,-0.336987108,0.014303866,-0.016511553,0.378853866,-0.768873309,0.017564016,0.007104623,0.545024086,-0.421762408,0.032518254,-2.147070885,0.140315834
-0.400241368,-0.615396104,-0.084263931,-0.325445872,-0.106955361,-0.079026882,-0.06159289,1.062069583,-0.163515262,-0.268222534,-0.285430161,-0.027560908,-0.041466266,-0.128855039,0.101238811,-0.286506798,-0.182017629,0.015363973,-0.90226441,3.457681234,-0.050023285,-0.166196913,-0.138641715,-0.03196704,-0.018092371,0.3593386,-1.035257226,0.004987212,0.006698308,0.486090971,-0.501317025,-1.610982802,#DIV/0!,-0.433805209
-0.356384783,-1.569765393,-0.057459281,-0.649721094,-0.854990563,-0.070508628,-0.034145191,0.675584941,-0.143434831,-0.263921541,-0.22112114,-0.047743422,-0.078975016,-0.035296023,0.072542157,-0.240124366,-0.152042814,0.072406298,-0.858586597,0.67225854,0.060044446,-0.19593848,-0.081667907,-0.007350399,0.028940988,0.316334757,-0.880783721,0.006266572,0.013910894,0.477451898,-0.490158453,2.053802524,#DIV/0!,-0.091815896
-0.310473924,-3.119604393,-0.033320274,-0.729447219,-2.312927674,-0.086489513,-0.219505457,0.934658717,-0.196368842,-0.234079997,-0.211980871,0.078102448,0.020877251,-0.214811965,0.167459034,-0.260377016,-0.133523063,0.090484287,-0.843344793,0.719979196,0.081692591,-0.087114942,0.086314297,0.004101434,0.04477449,0.390081039,-1.946895654,0.010152416,0.018963504,0.451814003,-0.358984366,-0.443594448,-4.29414225,-0.030701231
-0.254168363,-0.583437025,-0.017104462,-0.580597759,-1.019187274,-0.062245873,-0.050549683,0.832732941,-0.135191611,-0.209928686,-0.220784259,0.064515989,0.00613124,-0.219130564,0.13233432,-0.251636278,-0.114213053,0.057031105,-0.835635394,-0.49718684,-0.014224626,-0.184310991,-0.122776888,-0.02587298,-0.061131368,0.325931468,-0.172474853,-0.028907501,0.019231165,0.425757122,-0.501269395,0.128626723,-21.62599564,-0.366943734
-0.283416702,-0.615509951,-0.031618595,-0.44528682,-0.99462597,-0.09232064,-0.136778306,0.675221401,-0.148344673,-0.207655206,-0.548452507,0.020892498,-0.139391563,-0.147441074,0.067156717,-0.267717478,-0.123622718,0.107006886,-0.830693828,1.073078408,0.096161253,-0.12099603,0.041641767,-0.019670606,-0.008827344,0.336103053,0.155661693,-0.011786989,0.017545962,0.374744164,-0.628025134,0.950347103,#DIV/0!,-0.447900044
-0.286141065,-1.857704494,-0.035243375,-0.545657437,-1.469936798,-0.077368634,-0.059879518,0.982137426,-0.097944768,-0.203254363,-0.372636509,0.085616041,-0.127758092,-0.072030942,0.112972786,-0.227439679,-0.130499878,0.048106145,-0.87551742,-0.538870505,0.018338812,-0.169109167,-0.133639423,0.115229233,0.048908773,0.33550804,-0.451983,-0.045450004,0.015340822,0.349245931,-0.581727643,1.910691306,-21.62599564,-0.028126311
-0.265579572,-0.119449379,-0.04848466,-0.32292197,-0.663567161,-0.075765038,0.021311823,-0.004286284,-0.058284664,-0.194248236,-0.582979224,0.089222893,-0.036348792,-0.2670286,0.100251095,-0.256076741,-0.147251032,0.084097436,-0.86121294,-0.560299395,0.033680556,-0.216744006,-0.153927187,0.025376456,0.014401958,0.297638207,-0.057260358,-0.028873118,0.020254485,0.315494627,-0.612157874,-1.668146332,#DIV/0!,-0.28142222
-0.210434244,-0.201924893,0.003926715,-0.359524883,-0.935219895,-0.062198123,0.102319279,0.887211068,-0.04871385,-0.178057748,-0.271340126,0.109406421,-0.042390758,-0.148369892,0.111003791,-0.236193209,-0.121629661,0.086149519,-0.819907421,-0.534529869,0.071884796,-0.223090116,-0.123048924,-0.031190122,-0.075870805,0.348855418,-0.68992098,0.020519049,0.025647319,0.315494627,-0.512699468,-1.351467788,#DIV/0!,-0.198146497
-0.224085755,-1.959261414,-0.010362194,-0.391238008,-1.22319629,-0.076858184,-0.06846635,1.018270528,-0.1571576,-0.170755825,-0.180013433,0.054041079,-0.13659596,-0.40849713,0.063851841,-0.305892706,-0.126684147,0.077884617,-0.845455832,-0.523797263,-0.001990603,-0.198442049,-0.097948008,0.021194887,-6.7342E-05,0.290549356,-0.1289085,0.088742054,0.033693316,0.265368717,-0.562669599,0.30526997,#DIV/0!,-0.301256127
-0.185114979,-0.863397929,-0.000969994,-0.313408346,-1.203666131,-0.084395253,-0.051871343,0.428994297,-0.102953619,-0.18009805,-0.142402768,0.049150188,-0.071227272,-0.062142655,0.074543485,-0.225652266,-0.114786282,0.090194967,-0.82402191,-0.534153102,0.008986446,-0.237535822,-0.150694967,-0.056695434,-0.051970086,0.356767727,-0.509320937,0.006762785,0.023528806,0.248616235,-0.576857537,-0.725319283,#DIV/0!,-0.112680061
-0.158425106,1.152257728,0.018591741,0.15576139,0.342882225,-0.064860754,-0.000915117,0.732444363,-0.101220218,-0.206858749,0.006366578,0.059679247,-0.103498172,-0.030620905,0.100284885,-0.23130738,-0.087402037,0.056565089,-0.83744014,0.672144164,-0.085482873,-0.298716788,-0.285637834,-0.156399827,-0.23358057,0.294154677,-0.426635795,-0.048435647,0.021610439,0.256992476,-0.428307081,-0.878607724,#DIV/0!,-0.721718964
-0.072909151,1.547376508,0.05353488,-0.068975229,-0.61205191,-0.045966466,0.031014144,-0.085705928,-0.093349603,-0.209761284,-0.501159433,0.090862753,-0.064108194,-0.199369558,0.154316496,-0.18715952,-0.026611898,0.116291381,-0.775534612,-0.460192937,0.040846186,-0.176522374,-0.048593854,0.152322495,0.179780187,0.33666235,-2.04582691,-0.071164019,0.018666714,0.240503066,-0.574110086,3.70448176,#DIV/0!,0.272611472
0.030851155,-0.806689898,0.097483483,-0.383022705,-1.146418901,-0.066952779,-0.174458451,0.340081892,-0.176746799,-0.200492463,-0.227340367,0.080492494,-0.085162153,-0.195399356,0.14935306,-0.191736845,0.015742095,0.090369642,-0.725669396,1.033085876,0.019954155,-0.190911101,-0.107693487,-0.048756587,-0.105272714,0.333529256,-0.557329406,-0.080963426,0.014054416,0.24037153,-0.640462079,-1.023597628,#DIV/0!,-0.252217455
0.042924164,0.121658157,0.093362943,-0.369725673,-1.395803518,-0.006020415,0.072735842,0.337363109,-0.069828418,-0.20088632,-0.122072152,0.067081567,-0.050709454,-0.130138029,0.188053976,-0.183655678,0.024857844,0.167164798,-0.682401664,-0.370378064,0.095855122,-0.173513205,-0.046294814,0.191914797,0.1674797,0.283423503,-0.845437988,-0.072052435,0.023650986,0.248616235,-0.809901651,0.348157869,#DIV/0!,-0.147889779
0.015956379,0.056451166,0.081204614,-0.239390674,-0.851894688,-0.012362453,-0.014713109,0.232096047,-0.092837933,-0.205651454,-0.338960388,0.077267307,-0.03695323,-0.318407982,0.171785762,-0.193609778,0.014103015,0.173285144,-0.681539752,-0.396402487,0.201774304,-0.116894723,-0.04850553,0.115538957,0.084448244,0.30984229,-0.803768752,-0.027190696,0.024328965,0.22388212,-0.919674695,-0.914757927,#DIV/0!,0.27153025
-0.030122889,-0.191550659,0.062575686,-0.288774526,-0.31046537,-0.011457594,-0.046245049,0.726536392,-0.102953101,-0.194065076,-0.310661297,0.008604958,-0.027483364,-0.043298405,0.126362433,-0.19603643,-0.009532804,0.091847374,-0.756023801,-0.423164099,-0.028511581,-0.195109739,-0.192129354,-0.010171207,-0.036331936,0.274996477,0.156045463,0.009558487,0.025730849,0.22388212,-1.071263928,-0.929480484,-21.62599564,-0.295166731
-0.072580684,-2.109639246,0.071890116,-0.416948384,-2.051261343,0.034836358,0.030165127,0.588531208,-0.075191577,-0.201805493,-0.187624427,0.008926017,-0.055477356,-0.080079571,0.099336253,-0.209194013,-0.006552091,0.123374052,-0.73788395,-0.412116828,0.077466509,-0.183052618,-0.066277601,0.037726273,0.013947439,0.293750126,-1.15489337,-0.060080121,0.023048537,0.232126825,-1.021435489,-1.180002336,#DIV/0!,-0.313745533
-0.096339095,-0.360235383,0.058380932,-0.438581651,-1.560745585,0.012308037,-0.117374666,0.716515306,-0.143394384,-0.217577885,-0.185080426,0.033286795,0.011519321,-0.108317697,0.147656125,-0.204647634,-0.024097306,0.087079267,-0.784604026,0.98260076,0.015450814,-0.233004081,-0.157671801,0.062644207,0.015797689,0.297131837,0.120151275,0.023858666,0.017815787,0.24037153,-1.103364527,0.067103166,-21.62599564,-0.400779177
-0.134810784,0.181533126,0.02709465,0.008617688,-0.598904316,-0.004440235,-0.05084629,0.446589154,-0.117574202,-0.242930971,-0.473328827,-0.035600558,-0.061166532,-0.070138186,0.103640739,-0.162427542,-0.060012778,0.075630077,-0.816747181,-0.49491875,0.022794228,-0.188722687,-0.110578071,-0.012555463,-0.008695148,0.278113211,-0.485212335,-0.048203989,0.01807585,0.20739271,-1.284212328,-0.077462672,#DIV/0!,-0.19191263
-0.198881184,-1.111399753,-0.00081708,-0.307862214,-0.887851795,0.021306811,0.046560253,0.953717191,-0.032684903,-0.241141467,-0.197112033,-0.038807799,-0.020645642,-0.323601272,0.104205135,-0.237833012,-0.120193948,0.052745947,-0.864061084,0.693593868,-0.00755972,-0.172184259,-0.068432409,-0.013572568,-0.060138977,0.290055088,-0.458131585,-7.411E-06,0.023994442,0.191496379,-1.33586725,-0.940487782,#DIV/0!,-0.192667041
-0.213369894,-0.57442313,0.01030391,-0.327085614,-0.172096387,0.035825052,0.063330218,0.461812969,-0.042840794,-0.236361894,-0.476669978,-0.038753296,-0.085450656,-0.174381381,0.099670312,-0.252516722,-0.117708387,0.07485202,-0.844354927,-0.557392086,0.077127678,-0.24496839,-0.238576411,0.114124401,0.057918424,0.271199025,-0.394564831,-0.070907605,0.021782623,0.207985789,-1.272566933,-1.209563862,#DIV/0!,-0.739653993
-0.185960147,0.24442716,0.029805454,-0.218242137,-0.285395978,0.023930996,-0.103843134,0.210983361,-0.098688623,-0.241115651,-0.326325182,-0.042689628,0.006238006,-0.192657003,0.090257197,-0.254085655,-0.119729387,0.011077129,-0.868264127,-0.534239398,-0.139622633,-0.192082769,-0.107925444,-0.007082159,-0.045848113,0.274875074,-0.548501995,-0.108670819,0.011215943,0.22388212,-1.343758559,0.12667919,#DIV/0!,-0.237273076
-0.13818143,-0.806638667,0.034369911,-0.567331458,-1.218815878,0.038870254,0.082708845,0.159746445,-0.013861713,-0.244451423,-0.478730142,-0.012630709,-0.039775274,-0.115772085,0.132483702,-0.222994519,-0.098401941,0.087534501,-0.858747065,2.138668854,-0.009602371,-0.165642987,-0.05505748,-0.023980606,-0.020199633,0.235029042,-0.855932976,-0.008605106,0.014555531,0.199148005,-1.3619905,-2.218013048,#DIV/0!,-0.528728606
-0.130395323,0.784352244,0.036487908,-0.201989693,-0.437249421,-0.009199865,-0.112335144,0.070730502,-0.130654342,-0.249263622,-0.340701883,-0.082959212,-0.081494822,-0.226449633,0.097766131,-0.272216244,-0.135977925,0.034086776,-0.87025598,-0.568187859,-0.116289606,-0.282080975,-0.239628522,-0.05975421,-0.086369052,0.253821096,-1.259502077,-0.031478926,0.019094098,0.175006969,-1.345765435,1.304393561,#DIV/0!,-0.027296186
-0.076758385,-1.34651252,0.063409225,-0.14360188,-0.426388871,0.006917893,0.020343126,0.633334399,-0.139414655,-0.242387084,-0.351324687,-0.047815307,-0.085614746,-0.131998632,0.104043307,-0.233228327,-0.096880923,0.049336454,-0.814261181,-0.486526615,-0.037545068,-0.131746002,0.054701561,-0.038001615,-0.035304173,0.285260913,-0.669692313,-0.009033433,0.024857197,0.159110638,-1.31872052,0.565399026,#DIV/0!,-0.276087237
-0.044337576,-0.324745127,0.05543782,-0.567646101,-1.445986659,0.026268887,0.133595852,-0.013875857,-0.050169336,-0.235533126,-0.593100477,-0.016385968,-0.053901809,-0.19562109,0.135696898,-0.200296452,-0.041345843,0.068148651,-0.756397738,-0.472996107,0.007992771,-0.249065921,-0.260036277,0.087192107,0.052765405,0.245757831,-0.883656303,0.018062603,0.017814689,0.175006969,-1.199666512,-1.350709928,#DIV/0!,-0.279525378
-0.04573703,0.298371338,0.083139235,0.025031742,0.407863271,0.010811466,-0.123840537,-0.377337607,-0.135690254,-0.233660252,-0.318046407,0.032377317,0.058421765,-0.00605416,0.176354069,-0.145985781,-0.01201707,0.129915499,-0.729138149,-0.405245132,0.028679794,-0.145352949,-0.119257642,-0.088533686,-0.148074655,0.261915442,-0.647283833,0.044049181,0.029520327,0.175600048,-1.322891945,0.921827033,#DIV/0!,-0.293720625
-0.009109875,0.056451166,0.088474418,0.276246261,0.875919091,0.021094565,-0.047870311,0.974480258,-0.111984773,-0.228946952,-0.142909382,-0.024388024,-0.00346061,-0.019094141,0.136395058,-0.161333584,-0.008075046,0.11780058,-0.729720927,-0.418664745,-0.03521129,-0.220363099,-0.223987137,-0.038096058,-0.105237483,0.242402635,-0.088537981,-0.088225558,0.017433102,0.151459012,-1.506432987,-1.905293228,#DIV/0!,-0.286605136
-0.03605511,0.17963847,0.07140387,0.003174767,-0.040619096,-0.021213269,-0.190638021,0.874073516,-0.197799994,-0.238299389,-0.094450943,-0.007857295,-0.001399607,-0.144409274,0.151313483,-0.168198753,-0.017159445,0.084774857,-0.748403037,-0.412773618,-0.058033265,-0.157088911,-0.074564906,-0.133841434,-0.18411145,0.277930556,-0.99447223,-0.007508799,0.034330069,0.159110638,-1.288939583,-0.131135457,-21.62599564,-0.484020921
-0.090562167,0.561150602,0.050138516,-0.198897935,-0.622429304,0.007960823,0.053177309,0.700795316,-0.124159975,-0.230396218,-0.151111062,-0.041206608,-0.040463998,-0.160914899,0.09813339,-0.192223213,-0.048657006,0.046356937,-0.792938496,2.356570709,-0.076226323,-0.184108053,-0.079344596,-0.146900946,-0.192164332,0.292826875,0.546672708,-0.002893362,0.019862937,0.159110638,-1.17812897,-1.884067886,#DIV/0!,-0.493437496
-0.146229482,0.658423291,0.020047574,0.080284645,0.232797761,-0.033982855,-0.228120215,0.078924898,-0.233210848,-0.235676115,-0.417930598,-0.068621134,-0.107359111,-0.20923758,0.089867256,-0.186390615,-0.065166065,0.093042173,-0.787770963,-0.46573594,0.032529548,-0.221926983,-0.043383392,-0.038246023,-0.025911582,0.294347337,-1.541922796,-0.116350193,0.023258838,0.159703717,-1.311160016,-2.10033195,-21.62599564,-0.101888368
-0.236255749,0.849192165,-0.002530068,0.067643421,-0.276782271,-0.044171581,-0.257083303,0.244330138,-0.248324815,-0.235152878,-0.286038219,-0.084838499,-0.069372371,-0.203069921,0.082833925,-0.221854998,-0.1023125,0.042339909,-0.835802282,-0.515755702,-0.038578565,-0.223545106,-0.121749661,-0.080704612,-0.06905884,0.285116303,-0.924928345,-0.024425009,0.027649474,0.143807386,-1.385952138,-0.406760733,#DIV/0!,-0.060675838
-0.322616924,-1.463314689,-0.037186735,-0.251398726,0.083994284,-0.056618272,-0.101235691,0.423930877,-0.183363361,-0.247404994,-0.318811775,-0.089485737,-0.041779609,-0.091969727,0.082118388,-0.232982153,-0.179985266,0.007767324,-0.890573389,-0.575421475,-0.073130946,-0.293716817,-0.28258906,-0.117749731,-0.102509121,0.258604291,-0.34306939,0.019874232,0.028709124,0.143807386,-1.469294357,1.43998985,#DIV/0!,-0.483151711
-0.34158429,0.728412282,-0.013658263,0.06477497,0.209241791,-0.053846069,-0.08368569,0.603843282,-0.17205167,-0.250526451,-0.216773668,-0.107030359,-0.031521671,-0.088681229,0.071649305,-0.272200311,-0.185012388,-0.017657225,-0.926828114,-0.581679499,-0.114448529,-0.227630379,-0.136925712,-0.101381182,-0.094314223,0.284674102,-0.035998612,-0.004629958,0.030714608,0.183251674,-1.349860323,0.920883269,#DIV/0!,-0.486348739
-0.340225647,-0.201924893,-0.034350076,-0.490854986,-1.430668378,-0.051668391,-0.008183386,-0.024805729,-0.123440806,-0.251676982,-0.456450962,-0.127080036,-0.094437461,-0.083100131,0.031844178,-0.248320189,-0.172190924,-0.077525117,-0.918328528,-0.584288233,-0.177611955,-0.263386243,-0.125907118,-0.065830874,9.0996E-05,0.269916031,-1.035781186,-0.073908996,0.021255644,0.215637415,-1.349295807,-0.359308208,#DIV/0!,-0.312754102
-0.302426238,0.02132798,-0.024697431,-0.398425318,-1.024674141,-0.084187387,-0.254908913,0.40464812,-0.227160675,-0.244761148,-0.41218273,-0.136462468,-0.154440955,-0.092744875,0.02404166,-0.243007367,-0.161860304,-0.0414419,-0.923729611,1.863072724,-0.169162051,-0.268128989,-0.241764721,-0.086262895,-0.115350864,0.21940245,-1.026903582,-0.00730653,0.028224185,0.215637415,-1.196835751,-2.89796383,#DIV/0!,-0.782547342
-0.300910592,1.135377495,-0.017951691,0.303113498,0.978152663,-0.029817804,0.182609509,0.437418588,-0.095772193,-0.249978376,-0.158335202,-0.158952051,-0.097118777,-0.110473205,0.039723837,-0.29327979,-0.194172391,-0.023068798,-0.928356974,0.838333929,-0.21114463,-0.401907525,-0.405904506,-0.151949189,-0.125564851,0.2206148,0.205648095,-0.054684818,0.027754957,0.175006969,-1.13408522,-1.529960834,#DIV/0!,-0.855343353
-0.330242187,-0.119449379,-0.052151567,-0.13272098,-0.244065403,-0.097444996,-0.118404184,0.885482472,-0.23204355,-0.246758165,-0.400555669,-0.126130592,-0.127261135,-0.196941154,0.062609143,-0.262585216,-0.199611677,0.022826049,-0.908625326,-0.591464911,-0.036517692,-0.289114239,-0.215988306,-0.052006873,-0.008620264,0.251274531,-0.378035017,0.051069225,0.032228332,0.167355343,-1.090651715,-0.331774396,#DIV/0!,-0.339497313
-0.319726111,-1.029789078,-0.048335333,-0.462900187,-1.518601307,-0.086338994,0.0091395,1.251148445,-0.183707581,-0.234082107,-0.285451771,-0.098756128,-0.137456256,-0.01074597,0.061772262,-0.197157534,-0.189858188,0.004026705,-0.90168529,-0.572368042,-0.056668404,-0.244928876,-0.109933119,-0.015318013,0.031115647,0.279778117,-0.412518147,0.014236727,0.032261774,0.199741084,-0.858139213,-1.229802203,#DIV/0!,-0.364339673
-0.260358937,1.240264923,-0.020716098,0.482937669,2.067833106,-0.07659332,0.032063109,0.915680338,-0.147120798,-0.214803284,-0.261648019,-0.044815015,-0.043061364,-0.131066229,0.088140607,-0.227718711,-0.155137772,0.020460757,-0.85479691,0.667038633,-0.094074385,-0.210380261,-0.183325023,-0.092827586,-0.025294502,0.280924208,0.180211618,0.059102693,0.030269189,0.24037153,-0.571671757,-0.809511976,#DIV/0!,-0.235483096
-0.235388243,0.08611667,-0.040203539,0.088086863,0.135692596,-0.091795992,-0.140880586,0.389888027,-0.170507329,-0.193683179,-0.201947901,-0.042354642,-0.083006866,-0.225597557,0.06954716,-0.26823361,-0.120738083,0.034620407,-0.800437834,-0.478815827,-0.072429113,-0.179082073,-0.112473601,-0.020894112,-0.028508922,0.227901984,-0.540279683,-0.002395646,0.030082623,0.298873681,0.237891071,1.571451497,#DIV/0!,-0.286783889
-0.205300387,-0.015650114,-0.036248469,-0.291664026,-0.82943883,-0.075535648,0.033459951,0.497761734,-0.066485563,-0.186224235,-0.259677231,0.007564569,-0.121834287,-0.032787586,0.103666853,-0.191365694,-0.118697186,0.023216443,-0.797823871,-0.483382595,-0.141204195,-0.263033227,-0.301593237,-0.014966028,-0.055780723,0.214283129,0.062053052,0.020286863,0.042264604,0.273744958,0.710085992,0.655476396,#DIV/0!,-0.27830768
-0.192901249,1.165813145,-0.036057843,-0.224314983,0.327140501,-0.103768741,-0.068492011,1.094495019,-0.082689429,-0.164603492,-0.143383763,0.014820065,-0.059398399,-0.065268037,0.097199421,-0.213060867,-0.114318649,0.022390338,-0.769870688,-0.46604037,-0.088062798,-0.21385783,-0.151745295,-0.040077594,-0.112652549,0.204638802,0.242056339,0.055435703,0.04558163,0.332247109,0.66144965,0.038565741,#DIV/0!,-0.568990362
-0.142989671,0.304509913,0.000974395,-0.084732727,-0.552446346,-0.079076097,0.002972112,0.977521276,-0.058192108,-0.147455392,-0.011028141,0.03743268,-0.054252723,-0.186203777,0.087877948,-0.193916547,-0.075610612,0.045832188,-0.704716738,-0.407319487,-0.018507302,-0.15305271,-0.080894401,0.058663242,0.034060477,0.273245857,-0.437447057,-0.013749672,0.049878427,0.383120405,1.155100569,1.746303139,-21.62599564,0.118090744
-0.097127668,0.475882174,0.021781113,0.213888874,0.587159584,-0.079289222,-0.029026451,1.106795687,-0.059540198,-0.102416383,-0.299722614,0.069021553,0.053052111,-0.130058045,0.107140529,-0.143690228,-0.051696624,0.074866282,-0.631090688,1.097559335,0.010817917,-0.07083432,0.103848169,0.113474666,0.101009922,0.217745312,0.538374003,0.060078413,0.046621438,0.4087583,1.433434273,-0.64972347,#DIV/0!,-0.286651499
-0.154620583,-0.376470979,-0.048010616,-0.139323162,-0.17699351,-0.130208085,-0.089582493,1.038561457,-0.104202651,-0.060737026,-0.091183674,-0.019131642,-0.016776079,-0.174878962,-0.013991479,-0.102731429,-0.133471856,0.066638298,-0.634802806,0.777957575,0.000507497,-0.15272328,-0.130688708,0.039691846,0.076950112,0.192446956,-0.776145917,-0.033078339,-0.002589282,0.425757122,0.148973977,-0.601914658,#DIV/0!,-0.156984473
-0.256548261,0.181597165,-0.039983401,0.166486428,0.349862326,-0.223641852,-0.23099743,1.133296052,-0.194615896,-0.01796381,-0.047526743,-0.111684498,-0.124681257,-0.070414219,-0.067071851,-0.043149266,-0.197577816,0.066366561,-0.402078405,-0.38308383,0.060242881,-0.169046096,-0.243479358,0.056800453,-0.049870362,0.055561994,-0.968222509,-0.091940789,-0.132304115,-0.506413421,-0.233363969,-1.820892852,#DIV/0!,-0.438137166
-0.221304897,1.400259552,-0.050169183,0.314658647,0.568392396,-0.101940437,0.07712357,1.305148933,-0.019761382,-0.043948315,0.173889721,-0.038615401,-0.091461152,0.024288604,-0.053046525,-0.086409973,-0.15759868,0.03927457,-0.501754642,-0.361708969,-0.055038624,-0.179371711,-0.217865968,-0.136602709,-0.200894454,0.086536059,0.683951115,0.055497033,-0.046499392,-0.335685656,0.640699779,-1.744507343,#DIV/0!,-0.258463335
-0.220186645,1.007502655,-0.122877988,0.134932288,0.030865412,0.219794191,0.048164637,0.8083527,0.14913839,-0.326313056,0.03108858,-0.055131336,-0.035047505,-0.167845605,-0.083243359,-0.148894817,-0.077559711,0.007463943,-0.703197908,-0.407767177,-0.020317081,-0.137124731,-0.131894445,0.103893386,0.165113243,0.201376341,-1.537970361,0.022157804,0.036981702,0.784138092,-0.068664334,-1.559146778,#DIV/0!,0.184607571
-0.140701919,1.400259552,-0.021318988,0.345585609,1.236075583,0.066131022,0.213812283,0.648194344,0.097191519,-0.13647368,-0.04157154,-0.012144764,-0.045182406,0.045911039,-0.03782826,-0.103143274,-0.035673871,0.056814401,-0.598740553,-0.328177389,0.000854479,-0.077230742,-6.0279E-05,0.002357758,0.022938205,0.224930549,-1.105943495,0.114462044,0.03931785,0.811622312,-0.024793281,-1.000232458,#DIV/0!,0.201060032
-0.095382973,-1.847726517,0.008795632,-0.063594137,-0.610792419,-0.038489754,-0.06764851,0.795239765,-0.017865555,-0.093238137,-0.197372175,-0.025247689,-0.092775913,-0.133252482,-0.02487585,-0.136282229,-0.048156538,0.03555556,-0.556851751,2.350483449,-0.109488355,-0.123512069,-0.132035864,0.041619652,0.082888586,0.213713928,0.729114604,0.048256993,0.012938779,0.729203114,-0.166471387,0.154196484,#DIV/0!,-0.040453124
-0.156056949,-0.425075304,0.003180499,-0.137958292,-0.642325768,-0.045377601,-0.097989283,0.83216014,-0.027104489,-0.072499817,-0.186944996,-0.025837379,-0.083046234,-0.119425862,-0.02368175,-0.144721597,-0.101006,0.073087676,-0.541978401,-0.348038331,0.07701754,-0.118658377,-0.087665675,0.061256278,0.152693986,0.214490518,-2.135730958,-0.018500495,0.01200472,0.656921395,-0.442346392,-1.297874766,#DIV/0!,-0.33139327
-0.227827745,0.856375443,0.014217162,0.130567721,0.521860336,-0.037719008,0.047139172,1.121235832,0.021113471,-0.071912407,0.189462492,-0.023732384,-0.042986059,0.080471112,-0.018083644,-0.100066033,-0.125153944,0.015828974,-0.61641081,-0.384974434,-0.052669963,-0.154668496,-0.127502155,0.009800438,0.065207509,0.228530605,-1.881571829,0.150140251,0.017695175,0.61236892,-0.53791022,0.542471018,#DIV/0!,-0.054178177
-0.241201855,-0.043563172,-0.003770402,0.425734776,0.812897879,-0.021045081,0.022042398,1.719782769,0.012787614,-0.065896503,0.30999908,-0.026516203,-0.002995032,0.080346237,-0.024416077,-0.123948226,-0.112721473,-0.003892096,-0.630665271,-0.374619163,-0.10556655,-0.109393804,-0.059374092,-0.017654821,0.048621327,0.21169797,-1.295204329,0.051871038,0.016548731,0.639756926,-0.648043792,-0.085640987,#DIV/0!,-0.205107102
-0.257369381,-0.583385794,-0.040185558,0.000397925,-0.276985492,-0.019392476,0.054526036,-0.04726793,0.015942966,-0.090737346,-0.317517803,-0.005378661,0.03553937,-0.158604237,0.01289887,-0.110829658,-0.087458295,-0.011834441,-0.624310154,1.07564865,-0.088683158,-0.07337178,-0.014959635,-0.022902617,-0.003698422,0.19159727,-2.10682406,-0.049477287,0.009856116,0.604771467,-0.786458023,1.449550927,#DIV/0!,-0.074408084
-0.298904145,-0.031527568,-0.018272315,0.41298066,1.42942519,-0.033595759,0.037697349,0.41632923,-0.009079998,-0.094734555,0.010403811,-0.056544541,-0.111954865,-0.132437066,-0.040412555,-0.129356425,-0.112276519,0.018346361,-0.658057053,0.793771036,-0.039635942,-0.195236822,-0.130839764,-0.064473444,-0.012559661,0.200656093,-1.398302386,0.00764721,0.018747399,0.55327806,-0.897377384,-0.624519,#DIV/0!,-0.341701652
-0.376869138,0.784352244,-0.061320719,0.272702999,0.559414159,-0.069370357,-0.202458009,0.807895652,-0.090825871,-0.105409528,0.100613402,-0.057593647,0.006603289,0.067800097,-0.039276268,-0.128503233,-0.157189605,-0.034221284,-0.737374356,-0.46051544,-0.119740791,-0.106420275,-0.095248464,-0.062911087,-0.032680837,0.176401844,-1.505645674,-0.008932948,0.011370971,0.511237992,-1.205325341,-0.439043533,#DIV/0!,-0.268593848
-0.379198136,-0.137033741,-0.081105054,0.058029415,-0.012336323,-0.054229415,-0.080133423,0.467958979,-0.024349925,-0.118327129,-0.140849958,-0.080336375,-0.070998747,-0.061266622,-0.059632745,-0.207499549,-0.188401453,-0.01899196,-0.713426799,-0.473621708,-0.091590031,-0.149228995,-0.165083372,-0.043689377,-0.039229465,0.149330224,-0.277433426,4.9788E-05,0.014278528,0.494344945,-1.158371758,-1.700684182,#DIV/0!,-0.692506611
-0.344785254,-0.36739428,-0.050671939,0.165730217,0.748104346,-0.014985665,0.164962245,0.208900301,0.020975045,-0.115682822,-0.097070741,-0.044544311,0.052971511,-0.096720148,-0.030274861,-0.126374406,-0.163916181,-0.01916778,-0.719979495,-0.45547075,-0.089657983,-0.093895948,-0.011859178,-0.076285314,-0.055342138,0.225351655,-1.181926063,0.025048582,0.00938508,0.477066799,-1.413310529,1.46161365,#DIV/0!,-0.099183341
-0.309367724,0.552454814,-0.045354621,0.252054286,0.885888745,-0.034798068,-0.007070025,0.693842625,-0.02522373,-0.105584605,0.08604288,-0.053943407,0.031154196,-0.029570354,-0.04273373,-0.175275212,-0.136452495,-0.019298755,-0.737874418,-0.4627929,-0.086812703,-0.132437069,-0.086681551,-0.118051091,-0.122650146,0.198648933,-0.293017569,0.074060416,0.016112269,0.451534679,-1.539028835,1.310664927,#DIV/0!,-0.072327571
-0.315500066,2.672023582,-0.062293687,0.463286774,1.313603171,-0.032551212,0.035170009,0.267331112,-0.03629564,-0.139778425,-0.473549081,-0.042185279,-0.062748966,-0.026448705,-0.012574598,-0.175446006,-0.138211573,-0.021303249,-0.698368795,-0.462219412,-0.048502877,-0.144013367,-0.038392254,-0.023914305,0.061086067,0.187598267,-0.821786867,-0.001576908,0.007895725,0.358123218,-1.649217164,-0.50350229,#DIV/0!,0.203126354
-0.336398808,1.020899506,-0.012748284,0.478802337,1.417962326,-0.109327754,-0.189872522,0.648571969,-0.137547884,-0.055935281,-0.111154148,-0.109880273,-0.013059689,0.075418458,-0.015094499,-0.050200564,-0.169296606,0.006455283,-0.426996566,0.830697535,-0.012558712,-0.114653846,-0.261936598,-0.158630504,-0.325942612,-0.052909428,1.090972564,-0.064983029,-0.145176011,-0.790527219,-1.096852743,-0.935241793,#DIV/0!,0.013556814
0.042587747,-0.425075304,0.023108033,0.201148546,0.337520137,-0.109390575,-0.145752863,1.087627548,-0.142941585,-0.02191093,0.038586303,-0.110438524,0.016353077,0.134310543,-0.002711236,-0.062447673,-0.132861455,-0.022324151,-0.347698618,-0.298755913,-0.067008737,-0.091840978,-0.24984301,-0.109339729,-0.278176206,-0.052813527,0.918320577,0.024715432,-0.143233339,-1.246384532,0.90590196,-0.2530917,#DIV/0!,-0.317395201
-0.233748055,1.339758994,0.063520415,0.222526636,0.996336424,-0.197304222,-0.217321547,1.357658244,-0.135358668,0.000821523,-0.104973294,-0.083307762,0.024100902,0.082556626,-0.006056871,0.006308932,-0.055569612,0.006536488,-0.168949189,-0.171331712,0.032670171,-0.063806169,-0.203461336,-0.136503556,-0.357163137,-0.122585484,0.544102086,-0.016719827,-0.182157235,-1.4207976,2.719144273,0.624297062,#DIV/0!,0.092744562
-0.123560428,0.728355359,0.021732473,0.446753169,0.866545853,-0.005783955,-0.087555959,1.08694228,-0.081045448,-0.051155021,0.237516228,-0.003700801,0.033247523,0.030565818,0.021083099,-0.047532699,0.012599971,0.040643415,-0.386866865,-0.196752327,0.006236688,-0.069768645,-0.097642274,-0.074561547,-0.198015208,0.090835286,0.372267661,-0.061300766,-0.016533469,-0.47408258,0.919457252,0.974934911,#DIV/0!,-0.046990028
-0.129213888,-0.367451203,-0.02256593,0.002651836,-0.14860975,0.143405576,0.121125785,0.829569054,0.066081925,-0.091329121,-0.015237337,0.027783202,-0.027331588,-0.099064259,0.024167776,-0.07206195,0.030809508,0.080913056,-0.458767944,-0.224641785,0.052919706,-0.068848626,-0.082774964,0.122902972,0.145534288,0.145404247,-0.599834701,-0.023158927,0.007864309,-0.068734413,-0.201374277,1.408127118,#DIV/0!,0.081998872
-0.166317147,1.61226766,-0.035798355,0.297798752,1.34188119,0.134099912,0.072150462,0.776768404,0.024399844,-0.072569762,-0.062548638,0.05093679,0.038195392,-0.095441939,0.036886701,-0.099854173,0.003456032,0.005892015,-0.515614623,-0.253994995,-0.048058605,-0.059297691,-0.085377508,0.012247689,0.020189823,0.117880922,0.020966717,-0.020030895,-0.000810182,0.025970048,-0.249333894,1.594371513,#DIV/0!,0.226396153
-0.255824291,-1.34651252,-0.067609762,0.055252569,-0.055527216,0.137085844,0.093881385,0.713067643,0.016424871,-0.073533267,0.080845872,0.00466254,-0.013470588,0.020482478,-0.036355952,-0.089026612,-0.029643073,-0.017103029,-0.568012171,-0.320658255,-0.085171827,-0.167614868,-0.276181231,0.0196964,0.001738549,0.126620042,-0.21587925,-0.026646029,-0.005836345,0.065827502,-0.23376032,0.847664033,#DIV/0!,-0.065801717
-0.240588912,1.328215196,-0.05323993,0.189698716,0.495141972,0.193843006,0.235578718,1.100464374,0.087462121,-0.080505867,0.201432396,0.068020731,0.000816677,0.145678494,0.008534783,-0.088940514,-0.010016073,-0.013009516,-0.610357523,-0.327336393,-0.120219083,-0.145501238,-0.292013155,0.050307462,0.035127997,0.146488006,0.499746275,0.106016337,0.010476207,0.10518335,-0.465318282,-1.314585783,#DIV/0!,-0.223910388
-0.279284224,0.475808987,-0.079896227,0.35689301,0.928452915,0.12554765,0.097389967,0.812876511,-0.011572485,-0.076079088,0.023778873,-0.01022807,-0.010589448,0.055088562,-0.040897334,-0.07795587,-0.007911295,0.038515418,-0.584212263,1.117248402,0.081203465,-0.045312086,-0.067874216,0.187132267,0.1693688,0.178192009,0.188145884,-0.024294924,-0.003068283,0.041774906,-0.583630447,0.350045862,-21.62599564,0.507036915
-0.366862974,-0.615396104,-0.133672551,0.167384843,0.43659393,0.096827199,0.042206164,0.207313975,-0.00665856,-0.100114086,-0.357035746,-0.045031641,-0.085331879,-0.055780755,-0.055791169,-0.114009198,-0.081090204,0.010250535,-0.629416287,-0.351409732,0.049030676,-0.030524899,0.003025482,0.053779229,0.065607367,0.112839531,0.359326082,0.062016418,0.0071755,-0.021789835,-0.637075559,0.907302768,-21.62599564,0.02237604
-0.360926649,-0.775447657,-0.090377053,0.32055792,1.34918623,0.043154694,0.175030682,1.717063989,-0.040123498,-0.078523181,0.253961928,0.00300139,-0.008523882,-0.017269094,-0.030766452,-0.074452334,-0.095416423,0.003518989,-0.572859055,-0.39400168,0.074808785,-0.165039098,-0.158013854,0.048039209,-0.022251664,0.099695395,0.820457314,-0.034477662,-0.052705123,-0.262597461,-1.460216583,-0.955580554,#DIV/0!,0.381445318
-0.286184264,0.383180529,-0.055079937,0.131648577,0.178795165,-0.01526904,0.049674836,0.928567171,-0.088511836,-0.064185498,-0.323180489,0.026303132,-0.044790417,-0.117851083,0.007510416,-0.03146579,-0.073065783,0.031111146,-0.46464427,-0.307638465,0.159538761,0.011240232,-0.002872163,0.180498666,0.108666873,0.030032716,-0.427922864,-0.125916317,-0.096000295,-0.52281089,-1.065157372,0.271611476,#DIV/0!,0.74853236
-0.296615821,-0.655473031,-0.02956889,0.032302279,0.059572439,-0.021241059,0.204066471,0.841456717,-0.070133824,-0.04545121,-0.265843481,0.046837399,-0.009128491,0.045678467,0.024061383,-0.02965645,-0.068626292,0.033702481,-0.439131549,1.134763624,0.160604873,-0.047242746,-0.146457262,0.036696372,-0.094282006,0.067688407,0.295568889,0.016831318,-0.071560057,-0.579473796,-1.050722654,-1.714423918,-21.62599564,0.551045185
-0.347655634,-1.634502852,-0.018241267,0.267529122,0.83541784,-0.071086072,0.221479126,1.707574131,-0.101330719,-0.029322491,-0.003341418,0.0156796,0.078446297,0.146613717,0.040141503,-0.009475444,-0.088916749,0.058757094,-0.342256824,2.168009207,0.108019668,-0.010025917,-0.074911965,-0.014658709,-0.181067726,0.025151368,1.14330481,0.035107013,-0.143133054,-0.883230179,-1.282679009,2.024896214,17.33185387,0.581348776
-0.389216229,-0.706257259,-0.004560788,-0.161496503,-0.132005176,-0.104528356,0.203613558,1.048048422,-0.071652027,-0.015273586,-0.050397974,-0.023029534,0.010577697,-0.092133369,0.026588563,-0.00620799,-0.091819947,0.06699068,-0.242435457,-0.227917533,0.178157753,0.008083031,-0.09344805,0.118596782,-0.087906331,0.026262105,0.714487397,0.062696641,-0.180509489,-1.237527908,0.064541382,-0.148550313,#DIV/0!,0.163197528
-0.332202047,0.056451166,0.048691536,0.036889113,-0.103348069,-0.184286337,-0.026268245,0.63257089,-0.131886466,0.000855578,-0.166135043,-0.011719435,0.047940132,-0.068229532,0.054882246,0.003277389,-0.043662962,0.062646675,-0.127723801,-0.155619684,0.204494616,0.038203887,-0.079522381,-0.018983452,-0.31541414,-0.003091849,0.281070773,0.096366762,-0.186217314,-1.281063604,0.365372163,-0.24229514,#DIV/0!,0.123954295
-0.270446837,0.232408633,0.061608241,0.226383468,1.295276684,-0.174516121,0.046020616,1.288108428,-0.146323608,0.015826009,-0.32521026,0.012795617,0.10606805,0.115138953,0.072304744,0.056782201,-0.012024578,0.072774293,-0.124022526,-0.157212384,0.25390419,0.020533122,-0.213676317,0.093831913,-0.172944462,-0.014086009,0.774386731,0.029474009,-0.169312687,-1.256188941,0.053263343,0.867696107,#DIV/0!,-0.026386001
-0.214960878,0.784352244,0.106495613,0.368129715,1.255101351,-0.163374026,0.07589391,1.623289741,-0.118592822,0.032261783,-0.0325794,0.080709106,0.10064844,-0.023187122,0.136747939,0.061254385,0.019262101,0.055835987,-0.138491594,-0.150728988,0.175867392,9.2442E-05,-0.219790732,0.025409272,-0.209292114,-0.051437082,0.34412927,-0.089231125,-0.186175465,-1.218738102,-0.305399732,1.059172262,#DIV/0!,0.160840282
-0.247359178,1.020899506,0.073062688,0.185602794,0.773151886,-0.199495398,-0.049174069,0.770499639,-0.165482246,0.050719907,-0.169846524,0.088263096,0.054301316,-0.204660588,0.104478641,0.039969857,-0.00860465,0.097540409,-0.176461875,-0.163169561,0.243685727,0.024722299,-0.11751858,0.186366114,-0.030687066,0.052739196,0.141421677,-0.13116713,-0.166081868,-1.288216486,-0.403334276,2.682247935,#DIV/0!,0.319771203
-0.286641834,1.247057349,-0.015639409,0.356898903,1.275955098,0.13357114,-0.199870946,0.989701629,-0.068067832,-0.247339986,-0.073822001,0.018536267,0.032818423,-0.125222423,0.087294749,-0.09686196,-0.039590143,0.062022368,-0.535051329,-0.331465504,0.134163951,-0.080387666,-0.102489725,0.149661556,0.00983245,0.102538511,0.954949958,-0.011326059,-0.036493465,-0.388921246,-0.971274924,-1.847231382,#DIV/0!,0.377638011
-0.30389069,-0.51159684,-0.066737795,0.354368148,1.156797501,0.22049602,-0.002488464,0.890573352,0.08546238,-0.295156195,-0.090566967,0.006660566,-0.028360122,-0.25830798,0.02570033,-0.128925587,-0.020623812,0.031721772,-0.623659503,-0.372199702,0.131778319,-0.000389899,-0.106722868,-0.005063532,-0.094013599,0.167469456,-0.686491906,0.094664942,-0.038802706,-0.061890191,-2.902461145,-1.21325254,-4.29414225,0.059645027
-0.253785852,1.547376508,-0.068131939,0.112720677,0.141849242,-0.316369609,-0.078431605,0.512442258,-0.014318499,-0.105744808,-0.346215127,-0.044909755,-0.032507695,-0.100823681,0.062600779,0.042582135,-0.066657793,0.024946064,-0.219351064,-0.237208836,0.129518392,0.031848614,-0.176054576,0.085423352,-0.162149377,-0.033660581,-1.069586233,-0.02354948,-0.202627871,-1.281692189,-0.959776377,0.19130653,#DIV/0!,0.257570352
-0.298369508,1.884776326,-0.141310012,0.265992233,0.73713324,0.021415779,0.009409249,0.315181908,0.011735737,-0.065919916,-0.013079156,0.069854985,-0.005512433,0.01011053,0.016945635,-0.043632806,-0.006543694,0.092874494,-0.617378635,0.874307489,0.151310785,0.062491134,0.061733748,0.100211166,0.022194928,0.142740167,-2.200553716,-0.030705273,-0.048087797,-0.614204588,-2.075578153,3.97495341,#DIV/0!,0.714646453
-0.343056754,0.475882174,-0.082642377,0.287040431,1.207487378,-0.025952935,0.197417516,1.521508221,0.102886251,-0.060772896,0.000600882,0.05654446,0.015863274,0.054146209,0.072653061,0.026406853,-0.051078724,0.078907964,-0.445889619,-0.382781563,0.125796627,-0.172330805,-0.395489491,-0.119670654,-0.351097543,0.075130592,0.053117265,0.077100205,-0.113528999,-0.984146405,-2.441331482,2.552176064,#DIV/0!,0.170651594
-0.302834396,-0.367451203,0.026292463,0.11381942,0.075060958,-0.203237176,0.075648507,1.452744166,0.091257593,0.02108764,-0.042123943,-0.031218164,0.064970398,-0.028809856,0.094589668,0.098451026,-0.082510698,0.063013797,-0.203693488,0.93434875,0.10479985,-0.017357201,-0.305009239,-0.093144487,-0.43722849,-0.183332581,-0.860359397,-0.004188778,-0.257670656,-1.600131941,-1.406424595,0.06414779,#DIV/0!,0.039672164
-0.196443193,1.165864376,0.063809374,-0.163514612,-0.8344407,-0.113521162,-0.027553539,1.399765616,0.125751297,0.085121343,0.112084681,0.015894339,0.081825757,0.018269309,0.07290103,0.08517028,-0.007455095,0.078477601,-0.131825365,-0.239181331,0.155178665,-0.104402252,-0.446472985,-0.016933264,-0.387041905,-0.137212496,0.179547254,-0.010558712,-0.239843995,-1.576557338,-1.532480507,3.056766566,#DIV/0!,0.330494403
-0.112735551,1.993779792,0.127941194,0.289897634,0.505152731,0.007487571,0.060807939,1.23198966,0.239385336,0.031245994,-0.230854886,0.043133066,-0.014912243,-0.066599576,0.128607577,0.157826344,0.083271857,0.101947918,0.047713134,-0.083528973,0.30248407,0.080664584,-0.172886488,0.11247619,-0.225558467,-0.138419459,-0.832649222,-0.254179915,-0.273907042,-1.582512641,-1.164753277,0.05219217,#DIV/0!,-0.160730038
-0.042387145,1.993779792,0.142687082,0.652251717,1.678967888,0.15162163,0.146618518,0.964275489,0.405604817,0.147355075,-0.081164237,0.136282881,0.005625945,0.033074256,0.13481207,0.180156051,0.137486585,0.141610708,0.041081258,-0.034987563,0.268328139,0.054330908,-0.166134287,0.092687729,-0.234722897,-0.091246048,-1.492938059,-0.050890936,-0.227899066,-1.457615639,-0.980524834,2.472302257,#DIV/0!,0.292810345
-0.007337553,2.287045938,0.063247385,0.325836159,0.305493194,0.371254316,0.134028773,0.946802007,0.501510021,0.060312863,-0.087021732,0.211947759,0.126310093,0.050285936,0.108873072,0.046641628,0.139467091,0.120466992,-0.309994999,1.063077762,0.092501307,-0.057766277,-0.283138449,0.204433619,-0.003412698,0.052934903,0.209075061,-0.001076035,-0.025757438,-0.449555924,-1.953384519,1.316994937,#DIV/0!,-0.015183494
-0.134717819,-0.772311243,-0.015493016,0.353889607,0.898458921,0.46366603,0.061933875,1.171738879,0.602356723,0.010905631,0.064070039,0.15746597,-0.037014656,-0.033542503,0.008763427,-0.001108741,0.076845746,0.083422821,-0.444154219,1.00662955,0.070808486,0.001811617,-0.077153835,0.169063377,0.059637858,0.089989695,0.820660244,-0.085344081,-0.007802498,0.017819212,-2.482516098,0.735552987,#DIV/0!,0.096214487
-0.198508038,-0.295293,-0.053175644,0.644865256,1.82382598,0.515815717,0.279540422,0.606056468,0.854222738,0.011335972,-0.401105355,0.240095348,0.036720452,-0.109505099,0.073214098,0.059249548,0.068979016,0.119322988,-0.469654661,-0.238326328,0.192358564,0.012715017,-0.081331598,0.297355911,0.232473761,0.146522096,0.05171048,-0.000238122,0.011290629,0.232389897,-2.515518713,4.782921157,#DIV/0!,0.503158725
-0.233446429,-0.648276946,-0.06503456,0.270231951,0.573536617,0.467938187,0.06225568,1.403127959,0.898560601,0.052344368,0.287889081,0.23087488,0.023148728,0.101138923,0.031636268,-0.042956018,0.03280759,0.066542812,-0.528202256,-0.294407595,0.052273983,-0.067267138,-0.151710852,0.150059445,0.026181944,0.137875555,0.634835751,0.01523344,0.01674479,0.375130166,-2.502048875,-0.234424909,#DIV/0!,0.372220784
-0.243497132,1.389066018,-0.108416605,0.092326155,0.266800302,0.442158415,0.098669697,0.580841545,0.965150725,0.014750897,-0.244143721,0.256908752,0.010444488,-0.115557571,0.041964352,-0.037040443,0.02382127,0.106800038,-0.504593917,0.920199748,0.212508133,0.013422001,-0.081342884,0.209002586,0.069606094,0.139523248,0.581376446,-0.117588671,-0.001124891,0.468812825,-2.385245276,0.51986467,#DIV/0!,0.035127867
-0.24272843,1.152314651,-0.07855426,0.226860622,0.856850202,0.418459588,0.083080666,1.674294192,0.988530136,0.057069503,0.244397471,0.255864871,0.003143117,-0.133003798,0.029046444,-0.048786554,0.007570661,0.064636734,-0.554103047,-0.307810325,0.069407979,-0.034787192,-0.134171657,0.159804267,0.017170394,0.098713811,-1.016343534,-0.097519433,0.004186078,0.528516138,-2.346839928,0.0610363,#DIV/0!,0.072260664
-0.314231909,-0.295446693,-0.123249446,0.034996263,-0.276815742,0.379737868,0.176443854,0.787855917,0.971125703,0.044157457,0.01125964,0.209419539,-0.08735608,-0.058073059,-0.027623771,-0.10280856,-0.032695277,0.017403354,-0.612332606,2.093584475,-0.100531153,-0.090071924,-0.213267753,-0.034045078,-0.186216454,0.1454261,0.355690591,0.023373607,0.011498227,0.503369117,-2.384575771,-1.998828818,#DIV/0!,-0.099665089
-0.351970327,1.57621702,-0.157460117,0.238828371,0.815874807,0.299251479,-0.040020672,0.327325196,0.849760013,0.039971757,-0.163958601,0.241901429,-0.041793751,-0.080609323,-0.033332521,-0.117862276,-0.085614819,0.023482171,-0.62749092,-0.407584099,0.038182797,-0.178520481,-0.414611996,0.114069379,-0.014168772,0.070188538,0.006607898,-0.13073824,-0.001487425,0.477451898,-2.346421504,-1.020548998,-21.62599564,-0.394348388
-0.3970486,-0.137033741,-0.177123957,-0.187441476,-1.12578864,0.306484893,0.166611617,0.488132335,0.88776716,0.042503945,-0.123416569,0.160206017,-0.094038408,-0.21865221,-0.084079138,-0.122334459,-0.099463491,-0.002549543,-0.651025886,0.823053472,0.041848289,-0.068007475,-0.16532061,0.110110698,0.002318993,0.078008612,-0.415112,-0.074893136,0.001837881,0.417257711,-2.322869015,2.718472264,#DIV/0!,-0.079918815
-0.293021917,-0.360184152,-0.136814593,-0.115984661,-0.552781661,0.265516505,0.025553268,0.416261429,0.78306009,0.08824166,-0.095998348,0.24056826,0.044729386,-0.133778088,-0.030249237,-0.061952917,-0.092389678,-0.016061515,-0.451857009,0.891065499,-0.041973493,-0.120637359,-0.321665177,0.047719646,0.016416431,-0.059880059,-1.118735844,0.089811852,0.014515398,0.442895606,-2.423455381,1.998897915,#DIV/0!,-0.116026125
0.168500982,0.856375443,-0.033098042,0.389090834,1.314724541,0.230244826,0.147465971,0.5259922,0.724750483,0.183027905,-0.005473859,0.250370242,0.10587163,0.039740928,-0.014810777,0.141378398,-0.289721797,-0.022857418,0.299146926,0.078700334,0.021811996,0.185597327,0.265178005,0.008181854,0.347119832,-0.575653745,-0.837710742,0.005372709,0.079628849,0.315626163,-2.335459183,-0.283896843,#DIV/0!,-0.06851361
0.481962075,-0.015593191,0.014182874,0.049683667,-0.479647359,0.238576804,0.180731999,0.657621887,0.682047046,0.183489313,-0.039350487,0.204523052,0.046402789,-0.08961796,-0.017462466,0.190397688,-0.299367945,-0.006692297,0.484037167,0.193059042,-0.04064034,0.180854735,0.365885437,-0.106648865,0.284250694,-0.418071756,-1.194917957,0.198687153,0.125425491,0.256992476,-1.915840507,0.168728642,#DIV/0!,0.011914316
0.603121619,1.165813145,0.061490492,-0.161054141,-0.88059436,0.129558634,-0.170205894,0.527419617,0.492116224,0.207048118,0.348750537,0.17167671,0.139914003,0.075223743,-0.00639869,0.26663543,-0.229606928,-0.002902547,0.578042141,0.253455719,-0.072024185,0.158126883,0.304143846,-0.075364415,0.284769275,-0.392154058,-1.739304906,0.056463699,0.089118583,0.215637415,-1.989070903,-2.477154062,#DIV/0!,0.052774961
0.695448893,-0.367451203,0.063091419,-0.016002357,-1.052623363,0.274220209,-0.042474992,0.745086187,0.525316513,0.160825713,0.246418774,0.242418845,0.077948148,0.143556302,0.01501841,0.294214434,-0.102182266,0.04730765,0.660631853,0.328857332,0.101872416,0.22824729,0.502069332,0.036867192,0.589982781,-0.245754575,-0.640755455,-0.019454725,0.146701861,0.660448956,-1.409306503,-1.508377912,#DIV/0!,-0.264564501
0.714376355,-0.614225676,0.05014204,-0.198412159,-0.100784491,0.341380944,-0.079508462,0.658074712,0.537321734,0.105855431,0.073977199,0.234210577,0.096283794,0.054924624,-0.03817845,0.309864909,-0.033994833,0.071263656,0.699847996,0.341190855,0.157239647,0.134046364,0.223965535,0.137707956,0.597723517,-0.251253546,-0.425027949,0.120379279,0.152870325,0.783523897,-1.483439289,0.504917392,#DIV/0!,0.236209395
0.685328538,-1.786056196,0.048994998,-0.387738276,-2.212531667,0.391682213,-0.067383312,1.122085127,0.554433427,0.085219073,0.408142332,0.228733979,0.086888743,0.119859136,-0.02255835,0.260606112,-0.040915862,0.018595852,0.67360493,0.329019362,0.019019964,0.128610388,0.037058564,0.016456247,0.381444065,-0.246519974,-0.384388579,0.158987504,0.157510838,0.765423015,-1.417887188,-0.636769722,#DIV/0!,-0.077880403
0.721756065,1.020826319,0.065806676,-0.277552269,-1.422395995,0.379524928,0.018019074,0.892520839,0.522050261,0.071698561,0.004774748,0.234788312,0.095784768,-0.014666636,-0.034641179,0.25015063,-0.023170814,0.020481278,0.68097291,0.399211195,0.040494488,0.285848713,0.407792154,-0.011882249,0.401571862,-0.275569752,-0.166231209,0.051940056,0.158832832,0.683932772,-1.264143205,-0.756347358,#DIV/0!,-0.183476676
0.609193677,-2.016066215,0.025046507,-0.069651029,-0.931433206,0.344523809,0.037731081,1.449045853,0.438341258,0.072273673,0.512916842,0.153189017,0.10367999,0.150444408,-0.073361005,0.228706975,-0.119195259,-0.01838285,0.555924802,0.301440914,-0.164440337,0.164418444,0.150215542,-0.082213525,0.235297381,-0.249481722,-0.323002237,0.161012075,0.180184009,0.595204451,-0.978478211,-0.868405889,#DIV/0!,-0.203429986
0.603292312,1.53115372,0.049606899,0.009641016,0.170536103,0.246215241,0.13050519,0.996752083,0.394090166,0.115319999,0.237805756,0.144112536,0.099157714,0.185236665,-0.04539279,0.288778769,-0.113685617,-0.058774087,0.652706158,0.326199444,-0.078559876,0.167880031,0.257855781,0.002122357,0.328198312,-0.322969963,-1.059208115,-0.046240448,0.106365602,0.188598541,-1.481744304,-1.309944546,-21.62599564,-0.357829894
0.489096424,-0.863454852,0.024637598,-0.167442946,-1.01086296,0.222484028,0.14779446,0.992636851,0.318226707,0.094205665,0.092307764,0.049357392,-0.011519403,-0.226574164,-0.10446946,0.202904518,-0.160064486,-0.030287897,0.602006104,0.313607841,0.04820551,0.267061533,0.571078599,-0.05573047,0.330326636,-0.324423021,-1.636895754,0.033843957,0.14599973,0.097165818,-0.834244261,2.183696598,#DIV/0!,0.164532062
0.382487243,0.056508089,0.038022851,-0.041599804,0.361869603,0.08486058,-0.021477324,0.137764166,0.159461469,0.106433584,0.177913979,-0.004276505,0.136225697,0.138147186,-0.090441519,0.206629003,-0.231446662,-0.05015921,0.605399937,0.213701054,-0.030478239,0.119139278,0.144309842,-0.216458949,0.055704948,-0.399078958,-1.224101093,0.001358665,0.100041744,-0.067830621,-1.346459805,-0.224868366,#DIV/0!,-0.440207157
0.346788917,0.086167901,0.073806225,0.043438637,-0.541992397,0.021143144,-0.147460845,1.070222654,0.080029635,0.143371199,0.076036147,0.035278343,0.152198121,-0.05261462,-0.055811979,0.197651926,-0.234913949,-0.104602473,0.635945643,0.258744302,-0.099048469,0.199061016,0.274934954,-0.151978,0.081647045,-0.436503264,-1.624439228,0.1251586,0.081132578,-0.208288713,-1.239177894,-1.878204264,#DIV/0!,-0.505404469
0.395795504,-0.178518828,0.083407312,-0.209533321,-0.780102813,0.037950447,-0.082608202,1.169808082,0.077104869,0.147124497,0.092079485,-0.039593468,0.034821719,0.057711212,-0.128455943,0.217787819,-0.187137223,-0.061145764,0.698320318,0.292573679,0.082427826,0.188342147,0.246714047,-0.079920892,0.179509196,-0.378034834,-0.682811637,0.056159124,0.10011409,-0.184692144,-0.5671487,1.520755257,#DIV/0!,-0.194334194
0.409896686,-1.34651252,0.051700599,-0.458097476,-1.842565037,0.076877544,-0.104341881,1.148446862,0.074587663,0.150563389,0.243078304,0.021076816,0.102469961,-0.007062301,-0.095365927,0.163438875,-0.184345492,-0.129335584,0.630059511,0.341564645,-0.12448651,0.292860472,0.541595208,-0.046912958,0.251182501,-0.386977077,-1.070617386,-0.057647284,0.112886437,-0.021672336,-0.43844472,1.324194286,#DIV/0!,-0.382982485
0.389808417,0.232408633,0.039696947,0.141575827,-0.271599717,0.071086226,-0.107268455,1.290373241,0.043576199,0.128564211,0.171678213,-0.016903443,0.103283619,-0.162468371,-0.116651395,0.200556352,-0.172613722,-0.057906968,0.677691181,0.331574111,-0.016763013,0.246859299,0.289852503,0.023316723,0.306615417,-0.359885892,-0.868247565,0.035212271,0.122004677,0.025854945,-0.238286256,-0.088035252,#DIV/0!,-0.172458462
0.396055109,0.05647017,0.052962173,-0.000201912,-0.264765746,0.044460569,-0.136263121,1.117430904,-0.015678576,0.113581158,0.312817996,-0.030254414,0.101067647,0.226293646,-0.099660388,0.187685784,-0.205852528,-0.092377698,0.622164285,1.512549396,-0.148255592,0.139082783,0.204517622,-0.123399405,0.122685066,-0.356289159,-0.63963799,0.144396112,0.117544005,-0.013769907,-0.608651998,-0.144820538,#DIV/0!,-0.378470683
0.452526014,0.232408633,0.07295362,-0.017124572,-0.060414616,0.041436671,-0.123148195,1.576404782,-0.04027742,0.124809916,0.271418736,-0.022430012,0.030277383,0.009772251,-0.116761696,0.173094764,-0.1683952,-0.090080275,0.668030528,0.340669984,-0.068480015,0.247468855,0.364767843,-0.004237169,0.288341895,-0.33601447,-1.064612237,0.058257711,0.126822449,-0.005984977,-0.724629037,-0.423168706,#DIV/0!,-0.112586686
0.497619095,-1.535359046,0.092775099,-0.227017274,-0.741189453,0.050933786,-0.010401147,0.19118608,-0.042413464,0.114224138,-0.089152664,0.005622548,0.138416601,-0.110514199,-0.081251232,0.194645625,-0.16827319,-0.078995549,0.695293016,0.315145334,-0.072827901,0.137922894,0.182232795,-0.054476879,0.224514151,-0.338946105,-2.454876232,0.064455534,0.126095645,-0.021789835,-0.621510651,-2.602814921,#DIV/0!,-0.486159317
0.570955485,0.577309351,0.119856164,0.05082927,0.231570457,0.050234759,0.002243149,0.791390607,-0.056370162,0.160824698,0.17862196,0.050430259,0.14626381,-0.069174518,-0.036338566,0.206089211,-0.130873134,-0.031278388,0.71816643,0.384716008,-0.046933659,0.245630708,0.248187239,-0.011111612,0.224486134,-0.285267181,-1.431225471,0.105176799,0.135853605,-0.013887406,-0.387348725,-0.321658388,#DIV/0!,-0.532184242
0.564402446,-0.583437025,0.109506145,-0.46292681,-1.529963583,-0.007354931,-0.395955299,0.257893902,-0.20998318,0.151244983,0.226587465,0.092245907,0.19385344,0.094939033,0.011556505,0.240550406,-0.119101653,-0.037645826,0.73864314,0.391513705,-0.063491011,0.154078984,0.192986838,0.013437661,0.234147449,-0.334447462,-1.129077216,0.037725875,0.128557533,-0.068969411,-0.325665338,-0.871536733,#DIV/0!,-0.686409897
0.576970116,-0.863454852,0.104803075,-0.238866803,-0.792376011,0.01138444,-0.178775203,0.972167323,-0.172874444,0.170452295,0.217552146,0.064546368,0.099391078,0.161598137,-0.026263371,0.231130726,-0.133301765,-0.062254048,0.739251148,0.384247102,-0.084231475,0.094138103,0.156589848,-0.034904635,0.24305629,-0.336224589,-1.168733452,0.108190947,0.134649912,-0.0924417,-0.332145263,-1.554030551,#DIV/0!,-0.193431542
0.591546224,-1.251944653,0.121717057,0.061837368,-0.266871167,0.040942264,0.011008772,0.7939578,-0.091045822,0.176218901,0.127920164,0.041641699,0.06665912,0.266231977,-0.050368884,0.301096807,-0.080990707,-0.003431639,0.783224279,0.424800031,0.030401132,0.145842228,0.180375754,-0.004958266,0.277720775,-0.325892517,-0.974930889,-0.023361547,0.13533333,-0.0924417,-0.365475737,-0.814033128,#DIV/0!,-0.106541847
0.584750751,-2.239796896,0.103453453,-0.076842271,-0.800758523,0.004464864,-0.081057022,1.472363123,-0.148149158,0.182957153,0.316338073,0.057565895,0.048782002,0.080107093,-0.052177266,0.265567248,-0.07247838,-0.031730553,0.810450948,0.516184476,0.008683766,0.376284291,0.603078821,0.003953096,0.297042528,-0.335333313,-1.7063838,0.009738245,0.131881593,-0.12358142,-0.409014922,-1.458283237,#DIV/0!,-0.369144047
0.552352233,-0.65553707,0.082508749,0.04580055,0.00450079,-0.007613034,-0.008392951,0.688651206,-0.154587886,0.147769073,0.387787534,0.027697166,0.150872911,0.018135356,-0.065450714,0.24290507,-0.078833688,-0.072640495,0.772457601,0.44708878,-0.181687236,0.163270797,0.224836307,-0.086718485,0.141913578,-0.387934894,0.39402001,0.051724788,0.148163883,-0.11579649,-0.92469182,-0.025037221,-2.147070885,-0.249742975
0.50195675,0.904312827,0.078223737,-0.091868582,-0.059936455,0.005241521,0.195438631,1.164832812,-0.08915393,0.154051795,0.013810487,0.015107517,0.100374131,-0.046979622,-0.072967207,0.284093785,-0.064089475,-0.01820165,0.820964087,0.493091608,0.032599336,0.296465942,0.431296341,0.103690781,0.42153641,-0.359214581,-0.174780026,-0.099555557,0.145223659,-0.107908567,-0.121246437,1.401006578,-21.62599564,0.694028081
0.496190683,1.57621702,0.060703375,0.160363346,-0.229709894,-0.010778341,0.088590419,1.021104688,-0.132131118,0.18258734,0.300980214,0.035003167,0.100973265,0.034099085,-0.042914978,0.272328644,-0.066085856,-0.076554253,0.807644712,0.484795875,-0.102078653,0.200396244,0.232653775,-0.027633224,0.308808604,-0.349753698,-1.207411412,0.043429762,0.146848498,-0.0924417,-0.129313347,1.229353677,#DIV/0!,-0.140242482
0.533208068,0.904312827,0.091680626,0.151145324,0.259231994,-0.023213321,-0.006904203,1.000555199,-0.134291182,0.214802706,0.37959062,0.003535813,0.082401422,0.177385376,-0.087451296,0.235587241,-0.055644375,-0.050313554,0.82746548,0.48434907,-0.068434238,0.140339948,0.198313021,-0.129098106,0.14490306,-0.37094752,-0.57255013,0.063245536,0.153333351,-0.060949483,0.263872071,-2.339114621,#DIV/0!,-0.468803301
0.564815605,-0.043563172,0.053370379,-0.20591803,-0.665193496,-0.070685716,-0.180702877,0.695394762,-0.185857707,0.217811007,0.0925747,0.034680959,0.106579501,0.071388047,-0.057921543,0.289604956,-0.019083961,-0.052339592,0.846350807,0.516307446,-0.108775186,0.200152526,0.351465131,-0.027896593,0.363121675,-0.370106919,-0.954908539,0.019265839,0.140806026,-0.053164553,-0.024106129,1.155919146,#DIV/0!,0.093116917
0.545228078,-0.191550659,0.058993122,-0.058519788,-0.602405596,-0.0734275,-0.079516567,1.019001011,-0.133627087,0.2352954,0.453342365,-0.004817277,0.164874854,0.07211535,-0.091728113,0.276589132,-0.05964569,-0.050721667,0.835773916,0.47855526,-0.091164909,0.145883403,0.196372279,0.007527232,0.317080575,-0.357681953,-0.389466082,0.025505154,0.14337666,-0.10022663,0.148031369,-0.04212082,#DIV/0!,0.234146803
0.591934089,-0.139594103,0.090069537,0.358397074,1.316150978,-0.066294053,0.005702677,1.736295663,-0.123639138,0.242758689,0.4031796,0.011293575,0.218529008,0.196937517,-0.048147869,0.263754212,-0.024067352,-0.058470338,0.867863398,0.531840393,-0.13800713,0.192475846,0.305094887,-0.113176653,0.219788261,-0.300089713,-0.256741537,0.113255594,0.158153109,-0.061066982,0.449584982,0.170933699,#DIV/0!,-0.023420753
0.633568109,-1.762842693,0.083901171,0.17782421,0.5346795,-0.094090102,-0.237992611,1.11249906,-0.215695088,0.256214495,0.396334645,0.033832363,0.124869414,0.170432983,-0.061367641,0.299278962,0.006561434,-0.064163556,0.885159295,0.550728527,-0.184951902,0.206047491,0.195583851,-0.16310354,0.194607001,-0.384467145,0.023118655,0.1939171,0.158532236,-0.005869874,0.764761448,-0.147625104,#DIV/0!,-0.108091624
0.732151414,-1.029840309,0.086017193,-0.359524873,-0.734906833,-0.063122526,-0.154785144,0.619628069,-0.209659549,0.252634511,0.210939778,0.009952687,0.177224292,0.114601619,-0.075790262,0.275473071,0.076315033,0.003621114,0.963659923,0.674191093,-0.079051084,0.359065393,0.492999782,-0.067946514,0.306447825,-0.381531193,-0.651779676,0.043889965,0.155280886,0.05780997,0.735051321,-1.765298563,#DIV/0!,0.136540053
0.722850906,0.561150602,0.106454263,0.161427293,-0.048384214,-0.04430133,0.068817694,1.172414567,-0.182640064,0.216145529,0.40250338,0.015084618,0.155345595,0.148866766,-0.045745171,0.360321065,0.075208526,0.023653454,1.002510095,0.660763537,0.010342836,0.35612189,0.548728849,0.08293604,0.43432838,-0.362713855,-0.583343891,0.040735671,0.150866042,0.018067619,1.116691875,0.213746879,#DIV/0!,0.536871798
0.67484504,-0.367451203,0.087920743,0.113249861,-0.017570031,-0.052790726,0.10711633,0.678205344,-0.18405602,0.165005003,0.493363388,-0.008388689,0.225591244,0.162467743,-0.054790776,0.325308745,0.054233116,-0.023357195,0.931706897,0.615855701,-0.111223739,0.29461176,0.423025877,-0.096632049,0.280066855,-0.324743781,-0.820557206,0.052644031,0.157460354,0.009934984,0.940607472,-0.842346133,#DIV/0!,-0.354953355
0.671679407,0.784352244,0.082148621,-0.17309768,-0.065639351,-0.067924791,0.056307932,0.601977304,-0.210421812,0.137050869,-0.0160541,-0.00201453,0.147465899,0.118276301,-0.063669943,0.325364628,0.065931215,-0.020839748,0.954670846,0.628078542,-0.080555758,0.275688515,0.454813049,-0.12852802,0.264788191,-0.320688314,-1.477489237,0.089525138,0.159409212,0.025970048,1.117185843,1.454467972,#DIV/0!,0.027498636
0.627551746,2.763936103,0.09993395,0.61419012,2.01348127,-0.05812515,0.054085613,1.840513148,-0.214100759,0.156815374,0.637091504,-0.04081529,0.168588419,0.180996741,-0.090463161,0.276483852,0.038676486,-0.032201795,0.942493473,0.619620606,-0.082932521,0.300431464,0.428372595,-0.058316497,0.297687992,-0.362328023,-0.248171467,0.095394858,0.15694725,0.041890009,1.910586594,-0.229441406,-21.62599564,-0.032025859
0.603381136,-0.853361144,0.075260111,0.130734833,0.250892091,-0.062433414,-0.017205702,1.207986542,-0.219378935,0.142067443,0.345087976,-0.055983481,0.139188322,0.244982682,-0.10248785,0.336025561,0.042109937,-0.047953833,0.948064512,0.589570573,-0.061813853,0.250875092,0.36909928,-0.019979164,0.376730908,-0.339249665,-1.024883165,0.046393975,0.148867947,0.065827502,1.769140397,2.416993344,#DIV/0!,0.378770924
0.543258529,2.248121213,0.047217857,0.119321417,-0.329036167,-0.056375025,0.094111983,1.300118855,-0.178981254,0.115547232,0.33523971,-0.083679677,0.071057912,-0.046675543,-0.132899733,0.279819299,0.002712726,-0.043656659,0.911774051,0.604176102,-0.0085321,0.329631613,0.608802557,0.001240961,0.415628467,-0.251578977,-1.317167324,0.098331069,0.157658943,0.049792438,2.58309225,0.584423948,#DIV/0!,-0.258512267
0.484870289,0.60441137,0.064695828,0.33389563,1.738560634,-0.064071135,0.015651849,1.719560902,-0.197807072,0.106055006,0.451416831,-0.061130424,0.048078458,0.069670432,-0.083729821,0.284293122,-0.04210742,-0.049145708,0.86022544,0.534758035,-0.044457423,0.249179155,0.46558354,0.044309107,0.37145947,-0.317964366,-0.244824162,0.04770485,0.14990915,0.049792438,2.748255707,1.03890006,#DIV/0!,-0.566124803
0.493502874,0.114747318,0.064210019,0.206749958,0.279276399,-0.04724166,-0.03526201,1.687186612,-0.1958558,0.105652867,0.44220534,-0.067992075,0.234353633,0.167685475,-0.064181995,0.256821504,-0.062079385,-0.059391743,0.804606752,0.494240111,-0.142845804,0.165480113,0.262836849,-0.085704759,0.20231688,-0.316019253,0.360443284,0.154673296,0.154235773,0.065942605,2.835662818,0.039406835,#DIV/0!,0.260870404
0.574282524,0.856375443,0.058479572,0.420970754,1.147461827,0.007478582,0.220499224,1.74056899,-0.111706541,0.107488092,0.354982381,-0.064765761,0.120320748,0.046257027,-0.086399927,0.26383468,-0.019148468,-0.065041109,0.869587953,0.550897381,-0.090986835,0.281219516,0.381111765,0.006191043,0.276764887,-0.323934235,-1.250125784,0.008665391,0.151274062,0.073845034,3.023031522,-0.23531995,#DIV/0!,0.328776046
0.646255735,1.61226766,0.104905418,0.328532419,0.897622848,-0.03311795,-0.003555648,2.104492049,-0.217044156,0.098315918,0.489879536,-0.06414603,0.159925699,0.269275988,-0.096659914,0.323195416,0.006691122,-0.030837702,0.887555241,0.580096952,-0.073645628,0.210628282,0.399479556,-0.128172694,0.163369942,-0.268393739,-1.439369725,0.004986345,0.159938489,0.073479128,2.604302432,0.032575223,#DIV/0!,-0.100629309
0.639510316,-0.201924893,0.113780283,0.208368503,0.14951814,-0.049488792,-0.065738546,1.44615528,-0.228190974,0.058089265,0.413236066,-0.036675201,0.219197942,0.262705538,-0.064219048,0.310417291,0.023268145,-0.026960445,0.884212059,0.588993892,-0.160057961,0.191309118,0.275070188,-0.146072324,0.118861542,-0.245809849,0.321770389,0.130905687,0.162737316,0.026085151,2.81138506,-0.791463813,#DIV/0!,-0.011070658
0.63254752,1.547376508,0.091668093,0.230877899,0.535381072,-0.036294572,0.088816345,0.532217968,-0.204388901,0.032497605,0.027779627,-0.048479901,0.039439083,0.002655392,-0.08414745,0.288306353,0.051698351,0.01284376,0.964705814,0.647673851,0.073914977,0.31597673,0.434374235,0.029534137,0.333071417,-0.295744244,-1.323172457,-0.051652176,0.161601822,-0.045262124,3.000478126,3.852468442,#DIV/0!,0.385386694
0.595773332,0.976357183,0.083633686,0.400123397,1.48442133,-0.011450403,0.158680965,1.625955581,-0.128120826,0.067246988,0.542451099,-0.026760203,0.142262366,0.085997488,-0.066243353,0.311378391,0.026846378,-0.054598939,0.905096483,0.622137712,-0.125326435,0.310390573,0.442780873,-0.088262013,0.205657275,-0.306683818,-0.541084336,0.005154822,0.148318874,-0.068969411,3.078441883,-0.001750115,#DIV/0!,-0.072502584
0.580832529,1.328158272,0.110542932,0.275597746,0.751564887,0.011677913,0.199924301,1.01014314,-0.14965606,0.07386921,0.500007512,-0.053671828,0.081264126,0.111367278,-0.101729639,0.317976082,0.019708806,-0.034304884,0.929109375,0.609077069,-0.044278137,0.279994478,0.440346371,-0.049901122,0.318794831,-0.289576405,-0.324964044,0.023350534,0.152799628,-0.045262124,3.59596145,-0.254183923,#DIV/0!,0.211142206
0.544581733,-1.111399753,0.082908178,0.281035068,0.619534585,-0.01645213,-0.054025497,1.172319401,-0.226810692,0.085322049,0.586384496,-0.048674623,0.169703116,0.16345843,-0.093872916,0.320073505,0.017622259,-0.084870841,0.855888521,0.625983112,-0.251215555,0.304043608,0.533313828,-0.206026884,0.110176236,-0.234902825,-1.135961834,0.107206648,0.161570157,-0.021789835,3.012181545,-0.237603231,#DIV/0!,0.091294268
0.510081375,-1.887273981,0.081891651,0.145071444,0.150634851,0.031512291,0.161814206,1.542575351,-0.115605433,0.077365483,0.331436178,-0.057106142,0.143398326,0.027302647,-0.092505322,0.335676021,0.020714104,0.037007067,0.92227053,0.589195118,0.023152575,0.245586108,0.364748852,0.094301587,0.394472219,-0.250647712,0.12808397,-0.0274258,0.158109234,-0.037594693,2.558103946,1.501211569,#DIV/0!,0.103566204
0.454934136,1.339758994,0.07329526,0.273750047,0.921178781,-0.005679686,-0.04825385,1.168336143,-0.208996916,0.066291357,0.297249006,-0.05176113,0.029280027,0.056632845,-0.066861453,0.304215752,0.013128305,-0.008630933,0.914608724,0.567909468,-0.038806361,0.207781915,0.318748476,-0.016685871,0.239216067,-0.234774105,-0.188318319,0.147375302,0.15108669,-0.045379623,1.920852195,0.004815525,-21.62599564,0.400113083
0.45404116,-0.934475084,0.116683155,0.260078976,0.407479404,-0.213415109,-0.200137771,0.725094574,-0.268045348,0.092167617,0.402856008,-0.118459034,0.10157015,0.205490268,-0.059702881,0.332024627,0.033917261,-0.033142184,0.974988704,0.588702068,-0.097809955,0.219726123,0.222997615,-0.135753715,0.048819658,-0.369168311,-0.691050045,-0.107071673,0.037998785,-0.524807519,2.82269725,1.84637775,#DIV/0!,0.52480035
0.427751813,-1.25299072,0.077747541,0.048403083,0.244034831,-0.031615784,0.08580884,0.552000105,-0.162691693,0.152325094,0.293363691,-0.000701864,0.170339608,0.142019551,-0.066861899,0.291757072,0.121425975,-0.037908667,0.921180106,0.586195198,-0.055549366,0.175079724,0.233382488,-0.066537257,0.116763941,-0.20197312,-0.980787957,-0.03324825,0.106496594,-0.16932827,2.631799316,0.339810743,-21.62599564,0.071175167
0.420657201,1.576160097,0.066366347,0.43163634,1.193708663,-0.008208279,0.07794019,1.728216948,-0.156537339,0.174925636,0.439040485,0.002941891,0.179992411,0.027056684,-0.074868975,0.308543458,0.16917319,0.009727088,0.969202727,0.645195355,0.030251977,0.280119521,0.36896941,-0.118601783,0.106375013,-0.145178348,-0.065149444,0.058569266,0.140646742,-0.068969411,2.890765368,2.214521664,#DIV/0!,0.040558346
0.371237594,0.868262187,0.034744043,0.379815798,1.311561766,0.01405994,0.150871824,1.365599208,-0.099474062,0.147614644,0.303786561,-0.003181554,0.146322976,0.273172138,-0.054356852,0.326401346,0.158708333,0.010347057,0.905137002,0.59096565,-0.077234446,0.204524799,0.19802342,-0.058828252,0.122607671,-0.20617587,-0.11184513,0.151716358,0.13654013,-0.061184481,1.680949289,2.134416574,#DIV/0!,0.289157
0.290347235,2.672023582,0.039929079,0.255595909,0.825442705,-0.03858169,-0.006658151,1.409617673,-0.154619785,0.136920786,0.487594011,-0.065096946,0.042420729,0.231142103,-0.098204054,0.28450434,0.083901331,0.003862773,0.881071734,0.566129536,-0.048613857,0.234422715,0.329035051,-0.100521888,0.037928389,-0.215920944,-0.194418885,0.080233152,0.119666081,-0.092324201,2.27774378,0.844970711,#DIV/0!,-0.032389227
0.252079181,-1.188150799,-0.011337716,0.061612094,0.144436676,0.159804684,0.084190551,1.497927489,-0.003045313,0.00876296,0.521482105,-0.017617804,0.096561292,0.07924054,-0.112406723,0.24446611,0.108469002,-0.000894815,0.824497032,0.515794525,0.017540851,0.211196973,0.249495983,-0.065542087,0.103826209,-0.133496538,-0.002170237,0.103224753,0.155375621,0.348615767,2.301858162,0.607511036,#DIV/0!,0.203855442
0.174781616,-0.751919954,-0.002344727,0.180194968,0.386280042,0.512018842,-0.230588965,1.199335231,0.013955629,-0.346320097,0.523606339,-0.083074981,0.147556277,0.118006731,-0.154787806,0.176879098,0.140549425,-0.037323347,0.6427818,0.428460483,-0.063342389,0.13331228,0.140483635,0.024559967,0.221647935,-0.117084379,0.841581059,0.174172723,0.221671877,1.399116135,0.873452725,2.398176874,#DIV/0!,0.052389272
0.263502288,-1.111399753,0.028641694,0.126505615,-0.095386468,0.033560384,-0.128430992,1.143837077,-0.11872581,0.021674051,0.445020655,0.056303679,0.121393363,0.227680293,-0.058250674,0.2082786,0.115208188,-0.034801464,0.724482811,0.468113122,-0.067254199,0.278554534,0.285179435,-0.108980925,0.050239541,-0.125112677,-2.64473637,0.220689583,0.185782183,0.693601466,0.92888425,0.753639538,#DIV/0!,-0.136903961
0.343799052,1.565916837,0.136524093,0.403751387,1.318286221,0.008087605,0.176138594,1.951073643,-0.037142178,0.127009267,0.466733597,0.071720139,0.136023783,0.127985116,0.008657205,0.284937392,0.122365355,0.034093474,0.83151654,0.509981879,0.050162321,0.270657013,0.231897533,0.022850939,0.17691431,-0.183835796,-0.692637411,0.11808477,0.149329777,0.042188686,0.764203452,1.89683065,#DIV/0!,0.315915542
0.371801418,1.993779792,0.136615694,0.442698156,1.27448504,0.067169445,0.048740597,1.86660993,-0.061901303,0.174161474,0.567815334,0.114436305,0.153529457,0.298981558,-0.002496207,0.290557284,0.153949387,0.021219546,0.834719501,0.579969761,0.05218198,0.393684232,0.582954385,0.113467409,0.280753646,-0.204010464,-0.440329817,0.118324081,0.178811724,0.033872477,1.562437629,1.025679604,#DIV/0!,0.540171193
0.389953801,0.784352244,0.154939468,0.31295406,0.397339994,0.096236174,0.116240807,0.93857796,-0.024195758,0.178889914,0.359593593,0.146650982,0.079183784,0.139302733,-0.006493729,0.300714139,0.177961415,-0.022314965,0.857632952,0.583924672,-0.040058445,0.294420321,0.412979882,0.114613468,0.300538175,-0.160720953,-0.461970889,0.16569256,0.184143277,0.042005112,1.871023988,1.161103082,#DIV/0!,0.544098612
0.429844629,0.976414107,0.167155804,0.259493033,0.461156958,0.093696663,-0.038717541,0.94394534,-0.056178086,0.208440704,0.006086918,0.183356883,0.0628749,-0.066410886,0.016888008,0.303004586,0.232764377,0.021288334,0.945358843,0.674342746,0.098948908,0.41987722,0.622297423,0.042731989,0.283614087,-0.146588381,-2.021162189,0.021095079,0.185567739,0.073845034,1.505748724,0.10093565,-21.62599564,1.253388107
0.410238691,0.856375443,0.156875368,0.236699625,1.184616351,0.129871524,0.164866262,0.821866338,0.061017906,0.22599316,-0.123669171,0.159806607,0.072441981,0.052576443,-0.006756521,0.268365177,0.228586083,0.025206658,0.952817868,0.65497763,0.125559132,0.30286973,0.342828811,0.096360492,0.280486363,-0.112648944,-0.443192075,0.06922423,0.192987569,0.135789854,1.562643623,-1.6069183,#DIV/0!,0.950815519
0.342498141,0.480410458,0.135274403,0.326048572,0.289740666,0.0839211,-0.008689804,1.01092363,0.010758904,0.227251158,0.284702229,0.131903854,0.086924911,0.124261189,-0.004508883,0.267214291,0.208741622,0.022644759,0.910287176,0.625888787,0.089565183,0.330401572,0.3700639,0.201003815,0.359484191,-0.164030134,-0.176631965,0.209634509,0.190603085,0.159703717,1.216574368,1.234934308,#DIV/0!,0.180070307
0.335795173,-0.853361144,0.11581445,0.236096019,0.396227666,0.092306841,0.107382132,1.417825828,0.101709863,0.253830085,0.365372876,0.120311818,0.155831301,0.097132782,-0.006079613,0.277349762,0.233907649,-0.013920957,0.916506483,0.638840586,0.038183521,0.29695035,0.359536329,-0.036674247,0.095653681,-0.212612131,0.039112624,0.100125907,0.16851386,0.199148005,1.704575288,-0.194096295,#DIV/0!,-0.002290668
0.354403986,1.77057815,0.122643445,0.2115611,0.528093084,0.070300966,0.014412721,0.527052496,0.046130912,0.257321142,0.034447125,0.129202855,0.155582018,0.026363374,-0.030843589,0.307377413,0.276298792,0.009053626,0.965847267,0.683746021,0.079796794,0.385268497,0.488427449,0.103190525,0.247717466,-0.145498495,-0.870635896,-0.010847114,0.173773104,0.22388212,1.614171408,2.374429558,#DIV/0!,0.585404636
0.342884518,0.904312827,0.117752163,0.347414632,0.896023761,0.03816887,-0.150769589,0.840790828,-0.024349746,0.281140908,0.150008102,0.114383915,0.099258019,0.17684357,-0.027944821,0.308054851,0.285210484,0.041257187,0.967292778,0.693420332,0.12777986,0.39885203,0.445160316,0.056793841,0.187315861,-0.192701989,-1.618666541,-0.09481784,0.166557068,0.215637415,1.42407261,0.908983374,-21.62599564,0.229317425
0.354365992,2.375291924,0.12020096,0.479607697,0.774210617,0.068053339,0.14811776,1.101820152,0.110672282,0.296170758,0.167152192,0.138132077,0.152448777,-0.03830731,0.017104638,0.286074483,0.296432191,0.023873719,0.954925953,0.723276931,0.055372382,0.378745131,0.5445893,0.169051176,0.400181809,-0.128350916,-1.119959258,0.055879382,0.178853822,0.183251674,1.554598436,1.071918247,#DIV/0!,0.741726932
0.34187802,-1.411386595,0.094247575,0.292790757,0.610414015,0.031289366,-0.010651518,1.582364737,-0.010782372,0.283784592,0.318484805,0.102701061,0.119862102,0.060355902,-0.012234581,0.252894867,0.26742237,0.027848149,0.948319004,0.661162053,0.05203786,0.294030802,0.23974718,0.085406977,0.22542183,-0.228399435,-0.437867868,0.128277662,0.175223142,0.183844753,1.590188555,-0.748086592,#DIV/0!,0.116434754
0.323620157,0.784352244,0.106537488,0.078437166,-0.229976936,0.068611185,0.226285511,1.901339347,0.08691102,0.278609556,0.606096419,0.141788937,0.185545144,0.245252561,0.007987839,0.28076717,0.267670632,0.008978986,0.961599267,0.693239275,0.054944226,0.31463339,0.33492499,0.093735945,0.247587902,-0.179536133,-0.448816091,-0.001707406,0.162875138,0.1909033,1.240726351,-0.86677985,#DIV/0!,0.579074547
0.275006513,-0.360235383,0.068413159,0.239286339,0.623526836,7.0669E-05,-0.160665922,1.299267911,-0.065913955,0.261196823,0.423500235,0.045392255,0.157461121,0.338970985,-0.062960718,0.289486496,0.23966786,-0.019138591,0.896497674,0.644647955,-0.040013697,0.211796131,0.091292337,0.012902595,0.144809981,-0.184136491,-0.326452164,0.027273223,0.158633233,0.191496379,1.414650094,-1.269946911,#DIV/0!,0.028316446
0.252165388,1.77057815,0.047129184,0.266399803,0.467967848,0.008190374,0.039115187,1.066531302,0.013988975,0.230756878,0.078747027,0.098593796,0.118339914,0.084659144,-0.037438344,0.276602862,0.243344963,-0.012164262,0.924227614,0.681437981,0.073268673,0.352839537,0.415046378,0.26156218,0.455808211,-0.175304202,-0.682009533,0.134937149,0.178884247,0.175600048,1.130699149,-2.284806266,-21.62599564,0.08738456
0.208137305,0.157022686,0.036756513,0.145538541,0.787314412,-0.011000506,-0.011766518,1.010419604,-0.053926981,0.228242003,0.266051804,0.096160709,0.10801942,0.24594754,-0.02880791,0.287992238,0.197747439,-0.019185039,0.869619663,0.629004759,-0.000256875,0.345256399,0.375805693,0.031617352,0.165564854,-0.172673606,-0.186354896,0.112289898,0.178614076,0.167948422,1.329204271,1.018593841,#DIV/0!,0.024710085
0.120721622,0.577309351,0.002581411,0.203621522,0.918324383,-0.043202351,-0.051050028,1.622734476,-0.058962641,0.211964532,0.125339279,0.086041587,0.083333854,0.012970645,-0.062905732,0.241606075,0.172958325,-0.034303183,0.842742217,0.557772857,0.059806838,0.204712087,0.135925336,0.091847433,0.260670581,-0.194966102,-0.49194467,0.11644634,0.17704261,0.166762264,1.041663077,1.80613928,#DIV/0!,0.581097652
0.089900688,1.57621702,-0.011349887,0.268280647,1.017817915,-0.031848468,0.138844914,1.229347766,-0.011862596,0.191264188,0.147804715,0.046053609,0.024503267,0.063712816,-0.0958136,0.230882903,0.169986034,-0.039873981,0.835678918,0.593115384,0.08160406,0.339987531,0.386938343,0.117011012,0.2900889,-0.188478468,-1.736593618,0.103883563,0.180586085,0.143807386,1.106578973,1.650805153,-21.62599564,0.665010858
0.112834632,0.832211547,0.004854507,0.231186915,0.389924837,-0.015232497,0.187794624,1.938100486,0.008729118,0.195008761,0.504141054,0.142400533,0.201582776,0.089214696,-0.023776685,0.234926373,0.1919884,-0.034312727,0.828445124,0.550926644,0.056797569,0.167744806,0.103522458,0.201456052,0.341692585,-0.248610918,0.078003565,0.105630846,0.178967271,0.199148005,1.218264978,1.456084564,#DIV/0!,0.629939504
0.178922633,0.30445299,0.039032727,0.508081964,0.848765651,-0.049644249,0.096017571,0.950864562,-0.072781993,0.172905518,0.184130795,0.084314824,0.068534679,0.064495482,-0.074848919,0.246106316,0.211902239,-0.014679177,0.862557035,0.612074557,0.061393613,0.273120248,0.242380157,0.12327702,0.282316615,-0.201225792,-2.106832256,-0.055043866,0.174094413,0.240503066,1.396723814,0.158239663,#DIV/0!,0.103408311
0.162920142,2.375291924,0.022230704,0.412619501,0.882485901,-0.054151561,0.154297339,0.858356149,-0.033163148,0.150385224,-0.084628864,0.118021396,0.122257507,0.101277344,-0.051632873,0.257157961,0.215973492,-0.001717559,0.847571117,0.611896452,0.086114573,0.343432632,0.441146879,0.235013599,0.447139861,-0.152329877,-1.612236304,0.108355621,0.189004067,0.191496379,1.561466357,1.115195988,#DIV/0!,0.178499696
0.185782332,1.152314651,0.00813651,-0.112467302,0.246898344,-0.133152209,-0.250038356,0.842812396,-0.216771806,0.136574855,0.084055206,0.064009835,0.070276223,0.041912134,-0.10041152,0.243114639,0.181429356,-0.042581863,0.848396737,0.591955266,0.033505878,0.271081462,0.376237122,0.149027937,0.354825701,-0.159682483,-0.763794279,0.046579146,0.164982374,0.182658595,0.638215573,3.535779188,-21.62599564,0.661178623
0.257275208,0.626041754,0.035264108,0.271741552,0.977560668,-0.102533043,-0.034556395,1.111672422,-0.164885331,0.180498024,0.123541612,0.100498637,0.017021747,-0.035425944,-0.067690832,0.268702695,0.230179947,-0.039959347,0.894906038,0.664419663,0.053793614,0.421570508,0.492260272,0.135165686,0.353367472,-0.204045198,-0.611699773,0.141160022,0.162918753,0.24037153,0.658237873,3.55407028,#DIV/0!,0.821938473
0.284833751,-0.687497384,0.065859921,0.201927337,0.406744201,-0.074329342,-0.027591382,1.028509512,-0.130235605,0.21179001,0.186314188,0.111390671,0.110050032,0.243452548,-0.038389068,0.28026652,0.242291189,-0.006663898,0.896983993,0.662052799,0.040077202,0.330746957,0.439594766,0.176151689,0.320515082,-0.161786705,0.341603811,0.169945692,0.164427787,0.290365904,0.877183982,0.603101267,#DIV/0!,0.696566733
