CH1,CH2,CH3,CH4,CH5,CH6,CH7,CH8,CH9,CH10,CH11,CH12,CH13,CH14,CH15,CH16,CH17,CH18,CH19,CH20,CH21,CH22,CH23,CH24,CH25,CH26,CH27,CH28,CH29,CH30,CH31,CH32,CH33,CH34,
-7.295604387,-0.119442359,-0.039180974,-0.218934661,-0.223189882,-1.249188707,-1.25786869,0.8995036,-0.916552308,-0.347033818,-0.258231275,-1.481586384,-0.831103113,-2.28347191,-1.33030243,-0.409869381,-0.402497852,-0.241409864,-0.670186472,-0.306563687,-0.359310339,-0.498504258,-0.334679395,-0.288015845,-0.29897928,0.475000718,-0.441125806,-6.291992027,-0.393359247,#DIV/0!,0.135911827,-0.280592334,-1.190096167,0.260330358,pre
-7.07190037,-0.471319367,-0.693307909,-0.039290536,-0.256041539,-1.539767431,-2.123329517,0.680879221,-0.930622532,-0.302351253,-0.830821787,-1.510496153,-0.398364068,-1.050220658,-1.402292443,-0.288521812,-0.28211135,-0.292119314,-0.443018255,-0.224891634,-0.36913003,-0.421780924,-0.30345211,-0.280744831,-0.310769155,0.703614999,-0.649015527,-7.940087,-0.043170825,#DIV/0!,-1.047934774,-0.06377225,-2.548573675,-2.195674598,pre
-6.432499888,0.232453601,-0.351439154,-0.282073245,0.471194993,-1.357183144,-1.122873006,1.686188486,-0.777880984,-0.271974117,-0.488229409,-1.515104245,-0.03067779,-0.448998131,-1.472990077,-0.053252717,-0.152331064,-0.101975778,-0.295371955,-0.232515021,-0.162346153,-0.458568908,-0.280598928,-0.272267372,-0.286174096,0.144719324,0.547934383,-6.4082365,-0.701264291,#DIV/0!,-0.251943695,-0.624159725,-3.901563513,0.64575483,pre
-3.54102764,0.644558763,1.825789273,0.03677253,-0.225708259,-1.563743735,-1.716352598,2.783391346,-0.803846109,-0.259981999,-0.432344133,-1.29144392,-0.794014852,-0.037400259,-1.280729689,-0.009610723,-0.192502087,-0.213968595,-0.434336445,-0.075629593,-0.368832167,-0.290037716,-0.228781961,-0.221294188,-0.248538159,0.253249217,0.099726499,1.22249079,-0.141774904,#DIV/0!,-0.200310785,-0.5264441,-6.025538925,-0.605970687,pre
-3.2791605,-0.119347408,-0.999505246,-0.337134323,-0.243276526,-1.203308884,-1.171031052,-0.91318407,-0.467426878,-0.252117051,-0.260804234,-1.003981089,-1.901268256,0.016828853,-1.298980859,-0.064498548,-0.225530676,0.020428701,-0.115824643,-0.166367934,-0.066047693,-0.391306939,-0.247388179,-0.265484921,-0.253362075,0.958668365,0.053028463,-6.4082365,-0.169817035,#DIV/0!,-0.943482647,-0.546252705,-4.8378586,-1.454597455,pre
-6.547842027,1.472462773,-1.711162875,-0.268775815,-0.060254901,-1.765051138,-2.189022499,-0.726774468,-0.781739457,-0.239126474,-0.574704498,-0.984862078,-1.833487474,-0.131278433,-1.303073707,-0.133121334,-0.280509744,-0.260362608,-0.237188198,-0.070135243,-0.242448423,-0.338936324,-0.245361638,-0.184979875,-0.242083716,0.093869796,-0.770705358,-9.739764847,-0.593487129,#DIV/0!,0.987244739,0.347598626,-3.86589849,-0.911274221,pre
-3.2791605,0.262995373,-0.289797838,-0.068966204,-0.218372188,-1.248333142,-1.098502997,1.843293762,-0.518464673,-0.205363587,-0.06298316,-0.974970418,-1.89874171,0.083975898,-1.157914233,-0.022668313,-0.199847542,0.051730077,0.016999862,-0.050818325,0.027323551,-0.36735787,-0.245622199,-0.212821097,-0.233877698,-0.395064339,0.205630379,-4.0828588,-1.124520251,#DIV/0!,-0.590407542,-0.812399818,-8.821033003,-0.459356058,pre
-3.2791605,1.026070868,-1.098363468,-0.366024798,-1.516549898,-1.143323623,-1.33190266,0.121039366,-0.367333317,-0.192747121,-0.227966762,-0.942493791,-1.81136416,-0.856091515,-1.11889948,-0.137997982,-0.195424533,-0.006892946,0.042995943,-0.011026588,0.010523104,-0.351677916,-0.208391831,-0.158557867,-0.198605035,-0.300225262,-1.058980017,1.22249079,-0.736217228,#DIV/0!,-0.199241662,-0.48575452,-6.27761889,-0.892113438,pre
0.300838153,-0.615351077,-0.575324967,-0.304062678,-0.829352807,-1.574705616,-2.167799037,0.53414187,-0.59262283,-0.187758788,-0.298306033,-0.906099659,-1.77158985,-1.675703502,-1.078635476,-0.348658437,-0.278153978,-0.21427805,-0.120951205,0.076697165,-0.239586102,-0.276652147,-0.189712594,-0.066301459,-0.14985342,-0.066938386,0.219918053,-4.50457358,-0.144586182,#DIV/0!,0.462784994,0.296403119,-2.745318893,1.057273045,pre
-7.06053925,-0.68774022,-0.797619098,-0.120026046,-0.333540597,-1.112891513,-1.122618363,0.964020227,-0.389911134,-0.158638297,0.085212762,-0.956179851,-1.911938547,-0.333717687,-1.30563187,-0.142012583,-0.198800359,-0.051359312,0.033215607,0.118557768,-0.086019221,-0.200269002,-0.150779212,-0.064294272,-0.13491268,-0.08040198,0.37236127,-6.4082365,-0.363804537,#DIV/0!,-0.132030008,-0.464572146,-1.468753458,-0.042915102,pre
-0.921495435,1.026070868,1.48914088,-0.559256707,-1.75315173,-1.348118485,-1.508073643,-0.954288759,-0.457683255,-0.172683795,-0.500743117,-0.892253679,-1.766947315,-0.746933059,-0.841353422,-0.173409478,-0.108237026,0.057615448,0.160773628,0.103272177,0.028180363,-0.247371036,-0.156573943,-0.052001219,-0.174098557,-0.10018876,-2.034764554,-2.5925746,-0.509320282,#DIV/0!,-0.58043508,-0.261905628,-4.8378586,-2.053071843,pre
#DIV/0!,-0.024994905,0.422961813,0.142390999,-0.102864315,-1.231536665,-1.239878509,2.461721273,-0.464369477,-0.177941179,0.004859312,-0.815317225,-1.861876321,-0.753926383,-0.655110254,0.080719262,-0.035636622,0.072300752,-0.014948643,0.148229548,0.017030733,-0.199060147,-0.148530518,-0.107527648,-0.181390306,1.232886269,-0.598079245,-6.04520011,-0.286170419,#DIV/0!,-0.285669667,-0.308561596,-7.105359258,0.262734988,pre
#DIV/0!,0.867709129,1.354616512,-0.225073955,-0.597842914,-1.726665971,-2.531632388,0.342388232,-0.767063682,-0.186625641,-0.152791605,-0.910036493,-1.980549742,-0.862741891,-1.253773701,-0.274949532,-0.26243233,0.074346769,0.063601468,0.163429544,0.026445937,-0.135832365,-0.144141249,-0.104065115,-0.153438621,0.788898411,0.306913535,-6.430857063,0.109797798,#DIV/0!,-0.934018718,-0.509616202,-3.495629854,-0.196826499,pre
0.200148105,-0.039335863,-0.479721458,0.406307731,-0.108603643,-0.991716687,-1.314994448,0.215251937,-0.334588251,-0.181798839,-0.29198302,-0.871238095,-1.920737971,-0.264905477,-1.058210606,0.095266017,-0.002403908,0.034627812,0.106024763,0.10472896,0.05848476,-0.20971395,-0.150234333,-0.08401872,-0.157541223,1.33278885,0.023843508,-5.83930564,-0.27260023,#DIV/0!,-0.133548059,-0.386119134,-3.124273252,-2.658448447,pre
-3.2791605,-1.103732926,-0.941274978,0.24158191,-0.046627864,-0.571823616,-0.116799741,3.738437498,-0.240210645,-0.151256256,0.51685853,-0.820876003,-1.97265351,0.068481828,-0.854323554,-0.046875377,-0.140650269,0.269509739,0.15989376,0.015586347,0.196374393,-0.267992272,-0.144123803,-0.056041492,-0.123764092,0.635633578,0.20136158,-4.608407023,-0.012165684,#DIV/0!,-0.595941954,-0.098471633,-3.294382718,0.510940654,pre
-5.169849875,1.112396574,-0.532331198,-0.001163628,1.227016648,-0.871983141,-0.672737944,0.389331769,-0.184893427,-0.153280074,-0.360195449,-0.884427554,-2.041902962,-0.463997812,-1.169483465,-0.059361149,-0.107699807,0.166988706,0.062035114,0.127749003,0.05317938,-0.224380403,-0.139488106,0.001442202,-0.12781834,0.777418358,-0.000251419,-7.16121769,0.000121171,#DIV/0!,1.256949188,0.317127951,-6.27761889,-1.567987981,pre
7.46083546,1.947508102,1.037562435,0.155409974,-0.181200583,-1.023115785,-1.234114507,1.022485046,-0.409858809,-0.146287874,0.010436255,-0.803322256,-1.994700958,-0.573829558,-0.814587453,0.173175936,0.104284682,0.148300935,0.201935327,0.156936832,0.120905396,-0.169439052,-0.146825539,-0.050686368,-0.178178299,-0.054567734,-1.114616621,-5.01805385,-0.207961978,#DIV/0!,-1.489072764,0.346346805,-6.27761889,1.455623043,pre
1.34855652,-0.881626398,-0.456344065,-0.267598924,-1.189489943,-1.404376391,-2.165091891,0.611571789,-0.626978933,-0.162227789,-0.14920596,-0.824476779,-2.012618195,0.170384255,-0.918785906,-0.068942293,-0.096489823,0.225350872,0.135621407,0.049395917,0.195933301,-0.226291216,-0.130573104,-0.101260519,-0.172691587,1.003733869,-0.887765352,-4.922500772,-0.667650694,#DIV/0!,-1.209762462,-0.334992535,-3.50235391,0.069847906,pre
-8.18218279,0.456898665,-0.833349356,-0.067071818,-0.38838665,-1.115273949,-1.005584429,0.629880641,-0.466398362,-0.142102543,-0.127081419,-0.907064963,-2.133866608,-0.284750111,-1.463919904,-0.179711352,-0.198578336,-0.017504996,-0.104321905,0.059548078,-0.018002451,-0.227038359,-0.131437941,-0.091180013,-0.120952517,1.222255065,1.348048699,-6.865210852,0.087142616,#DIV/0!,-0.035162607,-0.395507277,-3.810166211,-1.25439692,pre
#DIV/0!,0.343988562,-0.284164846,0.076113193,0.614015096,-1.277667922,-2.039055514,1.305380516,-0.497863402,-0.152511097,0.023832424,-0.859617455,-2.101984477,-0.270264043,-1.097634237,0.036720202,-0.117666762,0.04780859,-0.056208999,0.015819112,-0.003648188,-0.233205807,-0.137212163,-0.074500802,-0.147564161,1.220081552,0.498781656,-5.620210648,0.08434181,#DIV/0!,-0.215672869,0.0213437,-2.422533693,-0.898493271,pre
-7.06053925,-0.564920034,0.829514177,-0.081181257,0.287532465,-1.155132821,-1.135536128,0.468884639,-0.644522538,-0.150476386,-0.008872042,-0.898598152,-2.074525404,0.102234063,-1.39014465,-0.142622172,-0.227636331,0.297644141,0.117711477,0.009789498,0.258310662,-0.207249224,-0.150943014,-0.070823849,-0.149442743,2.495810974,0.351205906,-8.538394164,0.13056977,#DIV/0!,0.145562032,-0.287312603,-3.937807058,-2.184148031,pre
9.74517727,-1.754487646,-0.558164464,-0.348322343,-0.876310302,-1.265328013,-1.895301939,0.378615439,-0.586196376,-0.173847373,-0.119387831,-0.904576213,-2.096951318,0.566136622,-1.380388493,-0.163035615,-0.347809204,-0.017654289,-0.109051671,-0.069229179,-0.021686664,-0.245896647,-0.173941985,-0.10162022,-0.152731094,1.558599147,0.893441634,-5.45049731,-0.199765165,#DIV/0!,0.125087947,-0.292594217,-3.071708602,-1.480807812,pre
7.46083546,0.552556766,0.375234296,0.431603743,1.140533128,-1.22264533,-1.641731559,0.777170276,-0.501403678,-0.176383383,0.075739363,-0.862637557,-2.297106647,0.376909105,-1.069407178,-0.153475777,-0.314015171,-0.177812158,-0.270664216,-0.025057639,-0.109969629,-0.258560872,-0.184126935,-0.080912308,-0.176915995,1.357091726,-0.839850759,-7.68270365,-0.155549546,#DIV/0!,-1.049779219,-0.083392742,-5.917276143,-0.155206577,pre
#DIV/0!,0.07528399,-0.797024707,-0.093116631,-0.1599629,-1.523941162,-2.212554447,0.306412022,-0.768634748,-0.178614871,0.200605863,-0.909683188,-2.300530338,-0.485843876,-1.39795965,-0.188403391,-0.332161061,-0.000424399,-0.079978197,-0.069179816,-0.000652599,-0.243378999,-0.152651342,-0.072084056,-0.150628196,1.054342713,0.491679339,-4.48752761,-0.088459087,#DIV/0!,-0.334054825,-0.416307293,-1.583586603,-1.624307359,pre
#DIV/0!,1.184483892,0.000426285,0.471044316,0.724528328,-1.325586746,-1.419353009,-1.271613464,-0.465855698,-0.181486236,-0.304405535,-0.914387161,-2.608551312,0.321351276,-1.094665754,0.170339027,-0.110285085,0.114891543,-0.009150097,0.018352203,0.155002896,-0.15346633,-0.138089457,0.003758299,-0.131380743,1.110806949,-0.056187579,-3.039100934,0.017838372,#DIV/0!,0.250547869,0.149720681,-6.939811184,-0.550034445,pre
7.46083546,0.158552205,0.673708329,0.549913473,1.731095139,-0.754478578,-0.361860899,0.662369397,-0.226398987,-0.178845661,-0.138746433,-0.9771823,-2.842268894,-0.877528852,-1.156032805,-0.173147001,-0.302330103,0.036887246,-0.054910206,-0.120217334,0.114179238,-0.233925959,-0.156887325,-0.045869567,-0.154595729,0.853735497,-0.035094249,-5.830761673,-0.182288764,#DIV/0!,-0.196644763,0.034208316,-1.105725258,0.02854839,pre
-7.06053925,-1.450867,-0.969184939,-0.228978055,-0.287020709,-1.841556216,-2.991647526,-1.964284003,-0.861898613,-0.185735326,-0.187445767,-0.985646529,-2.750787304,-0.55049351,-1.313794286,-0.401399026,-0.530062688,0.011408091,-0.247764375,-0.2087399,0.06821025,-0.245114276,-0.155550841,-0.081445123,-0.135888024,1.846507867,0.799789007,-6.534688881,-0.375918541,#DIV/0!,-0.784661469,-0.571164151,-6.361298205,-1.449377931,pre
10.1285472,0.680049031,1.183998106,0.097479783,0.073643875,-1.120487879,-1.127049047,-0.432685673,-0.345493242,-0.146657382,-0.224381001,-0.920852541,-2.688222052,-0.897419977,-1.099183535,0.098018055,-0.155141293,0.059887067,-0.022893117,0.049266504,0.081541251,-0.088160138,-0.101517109,-0.025650474,-0.129782136,-0.124930064,0.004381587,-6.572223545,-0.228743339,#DIV/0!,0.230682352,-0.171741835,-0.979168895,-1.638170851,pre
#DIV/0!,0.168031074,0.926521867,0.217586689,0.030750477,-1.02746532,-1.474169449,1.445850954,-0.351868232,-0.100716426,-0.064641069,-0.873845852,-2.575718951,0.107096666,-0.926475707,-0.137000614,-0.21342832,-0.177390693,-0.203914332,-0.065257747,-0.132303573,-0.215372355,-0.081930738,-0.031545845,-0.101318883,2.031655522,-0.136802438,-3.459505795,0.129335087,#DIV/0!,0.522393657,-0.311932337,-1.955890656,-0.186462698,pre
#DIV/0!,-0.295361879,-0.255153927,0.348994277,1.007193739,-1.454370907,-1.7185185,-0.706362909,-0.602462295,-0.105182507,-0.150705169,-0.899977427,-2.616154147,-0.97736179,-0.974635678,-0.166877713,-0.206901391,-0.015117509,-0.039850861,0.035050609,0.164016729,-0.114065879,-0.035207913,-0.086082244,-0.098662466,1.112334372,0.376706284,-6.337179946,-0.325045241,#DIV/0!,-0.768634747,-0.200530661,-4.642269273,-1.269584911,pre
-7.07758093,0.635442336,-1.414526894,0.78159615,1.422767179,-0.749252403,-2.166311394,3.431201286,-0.040385777,-0.079140929,0.211497192,-0.921722257,-2.673636104,-0.115027069,-1.123773986,-0.012819376,-0.114224045,0.139072417,0.151245888,0.062516228,0.222899631,-0.130574737,-0.044423035,-0.018969374,-0.092633682,1.519492253,-0.82165981,-2.5925746,-0.08494746,#DIV/0!,1.110857015,-0.329776539,-0.71405759,-0.260926514,pre
3.233008385,0.552556766,0.245573628,0.290715272,0.692988436,-1.349799892,-1.987768006,1.466865852,-0.33100143,-0.107393596,-0.052552389,-0.893916793,-2.674056126,-1.077373576,-0.868704599,-0.180445154,-0.117948612,-0.189900476,-0.011563949,0.180506556,-0.050823374,-0.088580747,-0.047939119,-0.047982453,-0.088285784,0.44958464,-0.368970564,#DIV/0!,0.372806818,#DIV/0!,-0.136380521,-0.462240468,0.786981103,1.387683139,pre
12.42318392,1.407634258,1.134270167,0.491743124,0.463705372,-1.494668967,-1.226429671,0.472889318,-0.466121471,-0.111628628,-0.069070952,-0.994810658,-2.785785912,-1.066179336,-1.467715585,-0.280638398,-0.198588684,0.016740528,0.054974347,-0.034886658,0.032358307,-0.206205368,-0.086275128,-0.070964558,-0.103811815,0.623262932,-0.135691448,-7.95303106,-0.058295043,#DIV/0!,-0.021703722,-0.157161486,-1.50863632,-1.581820519,pre
6.94035244,2.744283757,2.271724683,1.182482012,2.388708007,-0.939582175,-1.390475643,2.422629199,-0.278736432,-0.098532712,-0.051636115,-0.896753042,-2.628156971,-0.487228644,-0.837070703,-0.002812458,-0.000681071,0.067669506,0.1663992,-0.006131184,0.186066708,-0.199489166,-0.127031795,-0.023998714,-0.0949679,0.501617678,0.085318899,-13.69241333,-0.160398224,#DIV/0!,1.334094924,0.251276117,0.802872718,0.741010067,pre
9.28059435,0.976459104,2.101154013,0.486090682,1.064184711,-0.719609961,-0.259418554,3.023611236,-0.187463454,-0.10274641,-0.039039492,-0.96900124,-2.72226634,0.155271125,-1.365250611,-0.227756422,-0.242748721,-0.010392233,0.029207424,-0.051765057,-0.018552222,-0.234644146,-0.128755881,-0.043437147,-0.101325467,0.447967728,-0.256164715,-2.196916223,-0.40379877,#DIV/0!,-0.628882795,0.13606543,0.100651323,-0.140961908,pre
7.46083546,2.920127278,0.533053922,0.370592547,1.019145426,-1.111481805,-1.180541633,2.368144095,-0.215955256,-0.105246487,-0.125009476,-0.970200056,-2.798956727,-0.126029426,-1.093893271,-0.157832625,-0.14835951,-0.16629035,-0.053967291,0.032935143,-0.0916041,-0.198823076,-0.135306876,-0.086370801,-0.142993056,1.098436303,-0.66202722,#DIV/0!,0.112771402,#DIV/0!,0.978700631,-0.133512851,2.994983277,0.88253596,pre
8.603006365,1.152416592,1.058797012,0.675385977,0.83369836,-0.901020275,-0.624573212,0.959808141,-0.307303536,-0.10613454,0.077237476,-0.955674297,-2.703149462,-0.410983618,-1.126682232,-0.263071867,-0.223850987,-0.076440318,-0.001029185,-0.043344956,0.014106341,-0.225062809,-0.126558583,-0.092222348,-0.132017004,0.103666845,-0.225929082,-4.82460976,-0.014589076,#DIV/0!,-0.057085965,0.109795156,-4.01702595,-0.382548936,pre
7.46083546,2.424180592,-0.131424856,0.600510248,1.255601802,-0.989618894,-0.805354655,1.614209242,-0.304860368,-0.101027897,-0.266895858,-0.956165004,-2.71270821,-0.26122418,-1.077643958,-0.147589555,-0.160265391,-0.122172396,-0.068987457,-0.109888309,-0.068898926,-0.300168669,-0.151603459,-0.062865415,-0.107933289,0.986794706,-0.284502113,-5.54579719,-0.275429407,#DIV/0!,-0.229504937,-0.163567165,-6.27761889,1.520548501,pre
7.46083546,1.184483892,1.232273802,0.687215328,1.640710093,-1.79421387,-3.002829467,1.828218996,-0.652159735,-0.105230687,-0.293943306,-0.98204435,-2.745605372,-0.479547013,-1.220414852,-0.301554443,-0.272273945,-0.043814451,0.040052659,-0.042244812,0.069342591,-0.211427146,-0.134284556,-0.054069957,-0.122901039,0.332281114,-0.197373004,-5.876722146,0.283689452,#DIV/0!,0.447010529,0.378380392,-7.93309951,0.63286229,pre
#DIV/0!,1.060942264,-0.021283323,0.947308608,1.031007002,-1.1194902,-0.720005271,-1.431579978,-0.19317996,-0.10980866,-0.32767148,-0.947662021,-2.710323452,-1.122822411,-1.030621805,-0.186025816,-0.17252105,-0.049136002,0.052020183,-0.073889693,-0.001365683,-0.263790542,-0.12317562,-0.018662551,-0.092133492,0.332281114,-0.956520217,-4.411584858,-0.041025241,#DIV/0!,-0.063217643,0.215450422,-6.109565657,-0.47898237,pre
#DIV/0!,0.579667566,1.109351764,0.033853114,0.38002416,-1.794055774,-1.949290704,1.258635487,-0.583221595,-0.098934524,0.140982694,-0.928279664,-2.644807672,0.428006343,-1.126063148,0.18399526,0.095065772,0.083040881,0.030712358,-0.050218619,0.078230908,-0.212953631,-0.112425451,-0.095987604,-0.118587739,0.786187448,-0.765781349,-3.657018758,-0.074206447,#DIV/0!,0.158571554,-0.54419233,0.786981103,-0.287509564,pre
#DIV/0!,2.998573875,0.009763792,0.951378368,1.923953715,-0.56328949,-0.225957224,1.389150433,-0.127390494,-0.08482049,0.005488474,-0.942439997,-2.725017023,-1.578775517,-1.015361685,-0.253211999,-0.153665534,-0.071773866,0.002761407,-0.092706554,-0.00204603,-0.220025243,-0.124656288,-0.019969464,-0.066137056,1.370795967,0.155230299,-6.518487452,0.442730204,#DIV/0!,1.554029126,0.38637986,2.300733088,0.162579277,pre
-3.2791605,-0.183356644,0.766827934,0.020992099,0.280073033,-1.009023354,-1.082612917,3.848891291,-0.350287244,-0.07038735,-0.052403157,-1.012442011,-2.873230743,-1.227166851,-1.212072821,-0.315550244,-0.308428773,-0.248379254,-0.21601028,-0.034341933,-0.118427816,-0.133290912,-0.086369401,-0.006934035,-0.065658104,1.041834743,0.250628919,-4.104647993,-0.12887648,#DIV/0!,0.714429264,-0.55593436,2.74987632,0.092757072,pre
#DIV/0!,1.787238879,0.355963558,0.389235325,0.942520767,-0.74081307,-0.329265654,1.150120021,-0.141276481,-0.078865335,-0.088619217,-1.027459912,-2.83564298,-0.299070019,-1.393620003,0.029385203,-0.100960976,-0.145415532,-0.025120314,-0.018014327,-0.006026087,-0.129463706,-0.077143865,-0.048102078,-0.070498059,0.629014964,0.318404848,-7.101860236,-0.026088258,#DIV/0!,1.11659837,0.033334563,-1.95833802,0.939194854,pre
-6.291493415,1.152473576,-0.592582048,0.267296362,0.425528611,-1.259158528,-1.389557806,1.964854956,-0.316980296,-0.076058465,-0.630128235,-0.960292177,-2.813966345,-0.525940055,-0.991388292,-0.157627072,-0.125164835,-0.112508769,0.025243353,0.059320796,-0.085355717,-0.090942781,-0.059902715,-0.006592348,-0.067721963,0.873489013,-0.770867942,-5.26015415,0.570069061,#DIV/0!,1.072699555,0.154700071,-5.238305573,0.49577616,pre
1.34231901,2.672182427,1.560277878,1.04032252,1.966368707,-1.22763867,-1.871899043,1.862459124,-0.416061557,-0.068090115,-0.131440248,-0.987159025,-2.880065558,-0.040858341,-1.027269382,0.159092985,-0.030622034,0.004244696,-0.090838417,-0.00058889,0.052914458,-0.116019304,-0.066078315,-0.0567627,-0.079998195,1.694787421,0.073753216,-3.923228978,0.771362555,#DIV/0!,0.302993777,0.043403105,-8.185179475,-0.075984614,pre
#DIV/0!,1.112396574,2.600352834,-0.294450415,0.927371889,-0.89028654,0.386835359,1.474977506,-0.103952679,-0.086309872,-0.706575456,-0.97474808,-2.834050487,-0.892765232,-0.978809631,-0.341312688,-0.222226893,0.067881577,0.131287023,0.096241772,0.14424846,-0.040295182,-0.075642667,-0.015003877,-0.083933893,0.731203469,-0.319635348,-5.060498355,0.285460358,#DIV/0!,-0.174077352,0.4087396,-8.185179475,1.543966089,pre
-0.59416151,2.170658468,1.573716902,0.464671671,0.880246734,-0.916263658,-0.55851187,2.536723077,-0.176336201,-0.081714044,-0.265968533,-1.00179401,-2.852871415,0.30980209,-1.106373548,0.150784388,-0.072623963,0.084467145,0.072504368,-0.059670249,0.097627794,-0.165416031,-0.103772289,-0.060140498,-0.097084941,1.649166419,0.013338406,-2.196817043,0.376364779,#DIV/0!,0.809505193,0.447349177,4.3192811,-0.398096896,pre
-0.495713616,2.672182427,0.565333053,0.484988377,1.049086847,-0.711952823,0.291363486,-0.633804666,-0.13702166,-0.104668916,-0.191200797,-0.960834276,-2.736555503,0.132975396,-0.941744214,-0.07462927,-0.216352226,-0.057142851,-0.041853657,-0.025036996,-0.029084684,-0.099943608,-0.101120434,-0.065493156,-0.097129528,1.455975331,0.352879128,-4.611252307,-0.057986817,#DIV/0!,0.28017421,-0.010968528,-2.589080633,1.747510384,pre
5.660514355,0.961282241,1.200322689,-0.099389871,-0.295691187,-0.96108582,-0.429531061,2.243921059,-0.24478925,-0.081366655,-0.028103995,-1.013581526,-2.850620889,0.210688162,-1.082707431,0.179015257,-0.089888566,-0.079423389,-0.047877036,-0.078391712,-0.019977589,-0.157161305,-0.113673167,0.005334989,-0.09801881,0.623559644,-0.5696239,#DIV/0!,0.677636136,#DIV/0!,0.328375293,0.046155215,#DIV/0!,2.123301253,pre
11.10035324,2.000278253,-0.881844571,0.620401551,1.13110018,-1.110835512,-0.916395288,1.099231336,-0.51088783,-0.094296893,-0.240619249,-1.046176399,-2.876360224,0.172239908,-1.237689639,0.038664745,-0.149871949,0.074006958,-0.043374575,-0.057385972,0.113637862,-0.12258287,-0.106112568,-0.039422696,-0.097567743,0.62878817,0.20747228,-3.039180278,0.072129583,#DIV/0!,-0.008949895,0.376942099,-2.548573675,-0.324039359,pre
11.10035324,2.329020207,3.17872703,0.397900657,0.82276481,-0.645145448,-0.428832766,2.502027199,-0.108852766,-0.076570013,-0.132730061,-1.044704461,-2.91949477,0.014087861,-1.188667326,0.064910946,-0.125572471,0.060061115,-0.114148327,0.005981224,0.038437079,-0.069219233,-0.076681558,-0.090612709,-0.118891449,0.541713466,-0.145926318,-8.643860103,0.333363851,#DIV/0!,-0.153277907,0.598183878,4.3192811,0.054690445,pre
#DIV/0!,1.342794346,0.651137048,0.650801107,1.371019519,-0.716506373,-0.442525955,0.735787178,-0.257256997,-0.099096618,-0.072529184,-1.032848256,-2.783220219,0.261652968,-1.149462985,-0.080514484,-0.181181547,-0.19508374,-0.267818828,0.024866319,-0.253745493,-0.066416144,-0.056812546,-0.114198463,-0.13249098,0.73372102,-0.638171534,-3.15058339,0.121528853,#DIV/0!,0.047515957,0.071228402,-4.117978455,0.909246039,pre
-3.2791605,0.644507478,1.109027165,0.13022453,0.282856805,-1.774647699,-1.409495382,3.252430759,-0.648419238,-0.085228352,0.354873031,-1.068557107,-2.966982816,-0.548736018,-1.128116678,-0.16102815,-0.205530656,0.087906719,0.015481713,-0.085928802,0.095624157,-0.181582704,-0.098679539,-0.071854785,-0.095316638,0.093573054,0.417502942,-3.707645892,-0.247531867,#DIV/0!,-1.018194157,0.074043911,-5.173270387,-1.52105032,pre
#DIV/0!,0.263046658,0.559231066,0.008269366,0.102547246,-0.738741969,-0.561468799,1.436771454,-0.326777737,-0.091443951,-0.22843675,-1.045644513,-2.887815379,-0.361241967,-1.002438678,-0.032354227,-0.083610676,0.058904841,0.020099031,0.027151485,0.005615716,-0.116352574,-0.090279367,-0.078521138,-0.116206165,1.207470192,0.162728694,1.22249079,0.335280821,#DIV/0!,0.205826414,0.001601227,-0.979168895,1.012112272,pre
-5.169849875,0.904414758,1.671802056,0.214503942,1.19124252,-0.40209838,-0.144649866,1.107423929,-0.118419372,-0.112371298,-0.128533176,-1.047189154,-2.840823957,-0.300470144,-1.185236859,-0.083747159,-0.142403894,-0.12348483,-0.176467893,-0.083250976,-0.166242336,-0.194295229,-0.131629499,-0.102738892,-0.127754075,0.239558401,-0.019032891,-3.336685738,-0.525368039,#DIV/0!,0.177607044,0.399782653,2.226741393,0.500751054,pre
-7.06053925,1.061612421,3.214841457,0.042691499,-0.702267261,-0.897967935,-0.922003403,1.992601326,-0.422927349,-0.101435717,-0.098579936,-1.063118194,-2.893034242,-0.245873571,-1.184029453,-0.147051737,-0.285507414,0.090387565,-0.090611876,-0.073594897,0.040628794,-0.177661956,-0.126380643,-0.139172125,-0.129201343,1.165097518,0.278944793,-5.801161384,0.445358128,#DIV/0!,-0.08890469,-0.111592145,-1.95833802,0.961854547,pre
3.233008385,1.126452333,2.856279095,0.340613769,1.05216819,-1.004033993,-0.830640313,0.68802408,-0.503656004,-0.093551679,-0.081687485,-0.991576494,-2.544352673,-0.29436405,-1.086047782,-0.155499693,-0.261400251,-0.12122042,-0.119309593,-0.027340492,-0.093783838,-0.092858109,-0.084156783,-0.044730814,-0.103764063,1.200624783,0.662720193,-6.41081635,0.52893421,#DIV/0!,0.166386321,0.134303534,4.3192811,0.427984004,pre
7.46083546,2.998573875,4.187265959,0.342859068,0.026621956,-1.181515696,-1.019531279,-0.551903188,-0.388014639,-0.108717888,-0.68810271,-0.982287384,-2.379426789,-0.240264217,-1.305479492,0.063124783,-0.11518795,0.222624991,0.022232899,-0.042679894,0.146644864,-0.117699221,-0.091356801,-0.063604482,-0.102668069,0.472845283,-0.038571976,-1.63895738,-0.127285979,#DIV/0!,0.692054471,0.451089222,-1.95833802,-0.924575209,pre
#DIV/0!,0.408468072,0.900962408,0.00741822,-0.327514832,-1.186982813,-1.745264763,1.590287611,-0.495553286,-0.100984573,-0.095817737,-0.989632207,-2.512866116,-0.668539319,-1.202549248,-0.050548622,-0.11049166,0.138885246,-0.048072064,0.009622406,0.111695499,-0.09354518,-0.086489235,-0.057050763,-0.111925851,0.550053021,-0.178762904,1.22249079,0.393122645,#DIV/0!,0.841962149,0.42737786,-1.305558603,-1.73598568,pre
1.34231901,-0.039335862,2.499998264,0.499556517,0.637844816,-1.074519521,-1.277397541,1.19030685,-0.563909302,-0.116910288,-0.217281596,-0.971755153,-2.498098229,-0.48021582,-1.101294919,0.067873606,-0.152052888,-0.257795535,-0.339714581,0.007903627,-0.278078833,-0.089344746,-0.129983507,-0.050695841,-0.08929328,-0.033527515,0.714251321,-4.98249426,-0.227457494,#DIV/0!,1.190873445,0.255965568,1.506154394,1.664416436,pre
#DIV/0!,0.896391044,1.945621483,-0.115295595,0.724182863,-1.260396356,-1.935763135,1.892682461,-0.595929482,-0.108186092,0.034196218,-0.973680681,-2.590124631,-0.390230034,-1.008695357,-0.09340319,-0.303102981,-0.345842682,-0.353282043,-0.011431222,-0.339712327,-0.098588025,-0.129638113,-0.078218045,-0.112165103,1.516781326,0.637562906,-7.63658047,0.204546334,#DIV/0!,0.087312012,0.939598154,4.3192811,0.874628159,pre
3.381824493,1.40047541,0.205971119,0.712801085,1.935311121,-1.094186705,-0.789472699,4.160140218,-0.526343858,-0.11533468,0.146276601,-1.003825526,-2.693015147,0.342355386,-1.043946233,-0.035551517,-0.253910937,0.052039366,-0.253674412,-0.068344343,0.029314046,-0.12023598,-0.140275054,-0.082586696,-0.098792955,1.314783986,0.34349411,-3.57466097,0.262249738,#DIV/0!,1.472575122,0.65819195,-1.17500272,1.69302829,pre
#DIV/0!,0.976459104,1.654516857,0.488903225,0.253974097,-1.016318285,-0.988972715,0.416488554,-0.495844532,-0.126854716,-0.26380811,-0.96770193,-2.58012619,-1.614298896,-0.938731599,-0.066862979,-0.2073282,0.167033934,-0.122658512,-0.042546726,0.16710752,-0.125807671,-0.152477428,-0.054863364,-0.112807352,0.680297919,0.367884253,-6.023484612,0.12036335,#DIV/0!,0.670222851,1.087916826,0.18135309,-0.286542492,pre
9.74517727,0.408468072,3.806880785,0.116060937,0.525892923,-0.804255109,-0.525591594,0.380531148,-0.276964825,-0.128931009,-0.367191814,-0.962753559,-2.727293609,-0.507715128,-0.823161472,-0.146404631,-0.263965899,-0.021973844,-0.254602482,-0.116702122,-0.008386658,-0.173522906,-0.152944155,-0.006248187,-0.108515057,1.097116139,0.083537225,-2.41135466,0.559020179,#DIV/0!,1.183255559,0.460307229,0.100651323,1.924805237,pre
-3.2791605,0.376656261,1.928311023,0.277050606,-0.214870868,-1.34062212,-1.889972673,1.758746769,-0.575307789,-0.130977488,-0.051789544,-1.01119849,-2.79461367,-1.021648266,-1.177867287,-0.131997571,-0.259101814,0.172907523,0.021936819,-0.035726374,0.177189641,-0.159687075,-0.164067199,-0.026159522,-0.101092738,1.472584524,-0.373757586,-2.592773437,0.045514119,#DIV/0!,1.183554481,0.223645535,0.34638754,0.577476522,pre
3.880836807,0.728514253,0.729472157,0.164490095,0.76510634,-1.486236051,-2.638153082,1.744653318,-0.644761338,-0.118302646,-0.239313819,-1.010858668,-2.793139933,0.030880272,-1.190316582,-0.05439691,-0.261244374,-0.112797568,-0.194078737,-0.041262107,-0.080688683,-0.153783626,-0.158778565,-0.086127116,-0.129147056,1.746820458,-0.506960545,-3.8644619,0.221905634,#DIV/0!,0.197489573,0.13962145,1.18047154,-0.336702126,pre
1.824530283,1.026122153,2.0997284,0.302158782,0.516480695,-1.075525762,-0.658631939,0.323470858,-0.452713756,-0.130406534,0.075224776,-0.987042361,-2.816391656,-0.201039638,-0.811043752,-0.061016764,-0.232524914,-0.126903111,-0.29902712,0.041972,-0.13778323,-0.047402503,-0.135278746,-0.06184636,-0.095153062,0.612212444,0.532457191,-3.314687253,-0.088483623,#DIV/0!,-0.023792259,0.687763768,3.76322513,0.846282061,pre
7.82119274,1.724306451,0.859214819,0.228037863,1.096973461,-1.11492889,-0.973043474,3.446773933,-0.537465489,-0.123991,0.054063255,-1.03835032,-2.853826521,-0.287304276,-1.305534595,0.087755159,-0.208486121,-0.007017723,-0.215276597,-0.125847834,-0.013263208,-0.164946999,-0.163656148,-0.075780606,-0.101259769,0.342374905,0.374894852,-5.011732768,0.147095629,#DIV/0!,0.603888632,0.470912546,2.226741393,0.409458085,pre
9.74517727,-0.564920034,0.678760174,0.067305963,0.395258358,-0.885177154,-0.49994754,1.259526332,-0.469943107,-0.134639822,0.248040385,-1.04312389,-2.873118948,-0.745464095,-1.136146068,-0.246305294,-0.398121106,-0.237024726,-0.548147832,-0.136086317,-0.284651198,-0.16668133,-0.168780192,-0.08372349,-0.072038347,1.195500781,1.420065957,-5.038068962,0.272177415,#DIV/0!,-1.063660743,0.18649012,-3.578881947,-1.080175483,pre
-5.169849875,0.075335275,0.426393245,0.312095203,0.208622385,-0.814811794,-0.329111151,3.815826244,-0.408594196,-0.114485047,0.054146324,-1.057010527,-2.919361637,-0.648141832,-1.303377472,-0.325587984,-0.450776387,-0.134604666,-0.272482808,-0.084679113,-0.087945429,-0.195285939,-0.187039414,-0.10367536,-0.115743125,1.602658631,0.614797145,-6.092503356,0.849567927,#DIV/0!,0.558561282,0.380870517,4.3192811,0.785611071,pre
-6.38549773,1.724306451,1.753626022,0.270211546,1.05635775,-0.699416946,-0.341151086,1.610315273,-0.315696166,-0.11336962,-0.010259318,-1.018544781,-2.928338764,-0.599321322,-0.921088131,0.067531966,-0.190138903,0.02120494,-0.162406508,-0.092643947,-0.004969227,-0.195569214,-0.20654611,-0.055280115,-0.116659276,0.455109884,-0.076602195,-2.96936345,0.146367052,#DIV/0!,0.947255749,0.257443511,-0.979168895,-1.649793479,pre
2.661922933,0.896391044,2.50577082,0.177380685,0.495588144,-1.157205355,-2.046669188,1.411712647,-0.60593957,-0.131302737,-0.086730358,-1.022389133,-2.863667964,-0.020169995,-1.074071668,0.113269793,-0.146228238,0.200540178,-0.127284848,-0.094644101,0.205017764,-0.180594988,-0.178289812,-0.055505095,-0.090760898,2.04104993,0.474384628,1.22249079,0.48804533,#DIV/0!,0.219945523,0.266529748,-2.965615675,1.442405029,pre
#DIV/0!,-0.039335863,2.189822351,-0.051761091,0.375459333,-0.908887348,-0.405368391,1.979361094,-0.484201026,-0.10753764,0.039312109,-1.010812397,-2.89763534,-0.092042639,-0.986493649,-0.028741422,-0.306288843,-0.200171729,-0.286066575,-0.059729577,-0.177351738,-0.182726657,-0.170485212,-0.04273292,-0.086106129,0.281238904,0.4558805,-4.82460976,0.224830514,#DIV/0!,0.6574476,0.014740036,-3.541797065,0.486249261,pre
7.46083546,1.342743061,0.992917117,0.460959244,1.188543724,-1.199513057,-1.223456743,2.096898966,-0.54165695,-0.090915827,-0.119570715,-0.990818138,-2.934926556,0.054640746,-0.918988731,0.277253976,-0.016484679,0.029262485,-0.109699949,0.015645187,0.120214445,-0.138839698,-0.151970491,-0.0320348,-0.106387396,0.486536099,-0.210486573,#DIV/0!,0.056142475,#DIV/0!,0.683364612,0.551661839,#DIV/0!,2.692065861,pre
#DIV/0!,1.576318931,2.444962074,0.193784553,1.063026232,-0.820420055,-0.516725606,2.016048448,-0.312959709,-0.107002925,-0.173073324,-1.063515038,-3.058304453,-0.152761646,-1.138508413,0.245133477,-0.015257752,0.080250169,-0.087942392,-0.025894554,0.120159999,-0.097244555,-0.13767766,0.052587579,-0.049826166,1.649166425,0.891907562,-2.592872855,0.927254915,#DIV/0!,0.744716551,0.965586152,0.17319393,0.416610858,pre
7.46083546,1.47240579,3.037172189,0.64098847,1.805150011,-1.141949679,-1.241283448,0.877939399,-0.411564465,-0.113579486,-0.479616793,-1.040868421,-2.938511299,-1.180310705,-1.175420684,0.01228819,-0.090382581,-0.151300019,-0.156548107,0.008436578,-0.041754117,-0.097473564,-0.14604953,0.018085605,-0.097478612,0.697066321,-0.925049318,-6.4082365,0.555138015,#DIV/0!,1.709582715,0.608050926,-6.27761889,-1.538178234,pre
-0.19817416,1.648306294,2.486704736,0.25535443,0.304849108,-1.173282326,-1.444159598,0.344749946,-0.636191567,-0.116546091,-0.335106715,-1.016862907,-2.966811132,-0.235256997,-0.989424371,0.150929076,-0.063791735,0.104219874,-0.014033403,0.051357282,0.165508443,-0.053618774,-0.126327681,0.006771931,-0.08616843,0.733721044,-0.268130081,-7.63658047,0.104066324,#DIV/0!,-0.134786271,0.725632268,-2.745318893,2.480625611,pre
3.381824493,1.752276419,3.506498555,-0.005974119,0.672516446,-1.369834196,-1.726998829,2.12121083,-0.605650258,-0.098456834,-0.122506781,-0.947974201,-2.936610149,-1.030593905,-0.507287501,0.203590471,0.011424765,0.295036854,0.012263713,0.09363551,0.307753477,0.002836722,-0.102203377,0.025739367,-0.05909503,1.748475857,0.739888333,-2.5925746,0.492409138,#DIV/0!,0.979883477,0.969262339,0.90244354,-0.615423417,pre
7.46083546,1.576375914,-0.600577796,0.612421348,1.522079427,-0.789683379,-0.299705555,1.57683158,-0.341273276,-0.115585358,-0.08222336,-1.01302626,-2.957654856,0.02266703,-0.967788468,0.047795654,-0.125884875,0.135817919,-0.042537192,0.084852646,0.260098755,0.002441658,-0.099458122,0.019480469,-0.044238661,1.955959954,0.44697339,-2.592773437,0.546439685,#DIV/0!,0.933148148,0.301705822,0.18724815,3.326994699,pre
7.46083546,1.407634258,3.013295405,0.198669481,0.490396369,-0.819166327,-0.552469981,1.885980071,-0.387047546,-0.105457853,-0.191201942,-1.01797337,-2.975754855,0.290935134,-0.994724843,0.145250048,-0.138286074,0.118462514,-0.050028545,0.04149448,0.177271712,-0.041050988,-0.095584878,0.00672224,-0.057551384,0.653665695,-0.016763218,#DIV/0!,0.785403773,#DIV/0!,-0.13910682,0.797293478,2.226741393,2.798963463,pre
2.620377223,0.05661008,3.115472106,0.209994069,0.314247819,-1.245261805,-0.919748826,3.291270078,-0.60755154,-0.102401365,-0.255061692,-1.046093576,-2.92318096,-1.593330755,-1.356032961,-0.153693119,-0.216425825,0.080759334,-0.096264251,0.068778982,0.097794117,-0.063098908,-0.100476558,-0.010241088,-0.056165258,0.448264476,0.666624397,-6.4082365,-0.278827109,#DIV/0!,0.037013869,0.177488747,1.18047154,-0.613520817,pre
-3.2791605,-0.183390815,1.017810752,-0.520295712,-1.24531811,-0.754670823,-0.407701415,1.669959737,-0.401284623,-0.120047085,-0.154561773,-1.01758421,-2.955086444,-0.419974524,-1.044608275,-0.216046999,-0.306261035,-0.252433863,-0.374857712,0.046349037,-0.205518342,-0.028074018,-0.102895048,0.032639991,-0.039672947,0.404397655,0.634757918,-3.746233147,0.451985916,#DIV/0!,0.595493289,0.633697745,-5.341323697,2.787389031,pre
7.46083546,0.73808059,2.290877682,0.295025621,0.386372499,-0.520376097,0.325228248,1.446387438,-0.330502499,-0.113696234,-0.320651707,-1.024533778,-2.890458203,-0.201389554,-1.165190497,0.03880351,-0.170523193,-0.041150643,-0.183662373,0.027151485,0.062893456,-0.045730687,-0.101488433,0.007770056,-0.033415723,3.061131478,0.931918964,-0.685041905,1.018146367,#DIV/0!,0.40449907,0.65265019,4.3192811,2.257444849,pre
-9.30382633,3.092044417,0.46675782,0.51272532,0.777320022,-0.995135328,-1.42149562,1.779328149,-0.519233378,-0.115823052,0.010880609,-0.993927098,-2.818128417,-0.027064235,-1.157756383,0.01168974,-0.269635251,0.164657595,-0.13612064,0.009921519,0.142632757,-0.047258235,-0.107644628,0.005923528,-0.055800002,2.115443435,0.166890682,-6.097377968,0.823975418,#DIV/0!,0.274315386,0.756063004,3.763328153,-0.183699347,pre
8.674008053,1.026036697,1.909551097,-0.005150272,-0.694939771,-0.847114,-0.457878074,2.674514413,-0.354515615,-0.115517406,0.029903404,-0.979511822,-2.787010906,-0.206863141,-1.09858214,0.168293342,-0.060017525,0.16857068,-0.080533367,-0.0171329,0.193138641,-0.110261022,-0.128305971,-0.013456294,-0.064525936,0.162807902,0.017471328,-2.754825833,0.706844986,#DIV/0!,1.703231161,0.245072205,2.226741393,-1.177834358,pre
3.233008385,-0.341718383,-0.741699301,-0.368467434,-0.221173064,-1.248705454,-1.922295146,1.07029094,-0.680433949,-0.124954081,0.11399827,-0.997074861,-2.818142054,-0.230731492,-1.173761979,-0.109726322,-0.288762839,0.025925665,-0.239983806,-0.019017675,0.036092011,-0.090155063,-0.128992313,-0.02289388,-0.049611489,1.557264485,1.21070093,-5.05658398,0.70797305,#DIV/0!,0.958965949,0.791464282,4.3192811,2.526797069,pre
#DIV/0!,1.407634258,3.300801134,0.319225579,0.431101137,-0.85973433,-0.88031057,1.510353024,-0.468183385,-0.132722188,-0.405451483,-1.021425515,-2.804166387,0.498754172,-1.186657311,0.241921117,-0.089006594,-0.105586894,-0.26497502,-0.086212611,-0.066199285,-0.161973411,-0.161026438,-0.023056098,-0.099855184,1.913973982,-1.012407882,-6.230595115,0.879040445,#DIV/0!,0.333782529,0.724412306,4.3192811,3.812957483,pre
#DIV/0!,1.565995997,-0.403263217,0.077424137,-0.165735118,-1.130114984,-1.1648992,2.927714779,-0.604900482,-0.133445345,-0.09393715,-1.070265782,-2.910282323,-0.10614056,-1.343101203,-0.035868176,-0.306689163,-0.060525314,-0.296968183,-0.086309895,-0.002624216,-0.150143655,-0.142677107,-0.081839275,-0.098443009,2.695516157,0.709252085,-4.366648197,0.705368637,#DIV/0!,1.553330776,0.182784989,-1.305558603,0.535658614,pre
-2.71909547,0.232510584,-0.577507771,0.268461326,0.067507319,-1.366823096,-1.660948085,0.99075702,-0.720546227,-0.13257384,-0.226294334,-1.049979306,-2.893760512,0.488398497,-1.113463654,0.225750102,-0.093074195,-0.015246848,-0.251054433,-0.118222501,0.114384071,-0.224618773,-0.176559135,-0.065686143,-0.090309911,2.035281242,0.268021936,-6.226718305,0.670635109,#DIV/0!,0.124785544,0.337125732,-8.185179475,-0.078738067,pre
-9.042198182,0.133315549,-0.817776155,0.090292974,0.00167487,-0.945605962,-0.961133587,2.426569596,-0.604409848,-0.138316157,-0.115976317,-1.099334381,-2.932077859,-0.028915272,-1.334239752,-0.086403642,-0.29577144,0.070700042,-0.18245705,-0.152014229,0.068588861,-0.208775371,-0.17121948,-0.092477878,-0.096622556,0.630108334,0.755012118,-5.918927907,0.232412763,#DIV/0!,0.816827371,0.126427486,4.3192811,0.039787953,pre
-8.751573971,1.184432607,0.755628473,0.119593676,0.742283027,-1.659518905,-1.438646173,1.301784848,-0.805700839,-0.144265872,-0.511248634,-1.077516503,-2.883486197,0.518859153,-1.402893253,0.126399632,-0.1859787,-0.097912212,-0.33848184,-0.135206107,-0.094213554,-0.190751725,-0.179002523,-0.029586271,-0.078572331,0.688396766,0.343401795,-4.90162333,0.399401846,#DIV/0!,-0.532620895,0.453746468,-1.305558603,1.994842508,pre
-0.346192678,1.28717332,0.952990351,0.176695548,0.128282963,-0.836903677,-0.30103158,0.914162721,-0.376821001,-0.132356716,-0.103718708,-1.02981131,-2.868725228,-1.107250311,-0.86524255,0.012146653,-0.145896906,-0.046336937,-0.237156964,-0.042714113,-0.023624619,-0.141264318,-0.15895449,-0.043189494,-0.095917767,0.845362641,-0.725921206,-5.88294077,0.467838291,#DIV/0!,0.122853527,-0.02197091,0.17319393,3.14053718,pre
-6.752540083,0.376599278,0.01467797,0.4098139,0.483587925,-1.126468253,-1.524041617,2.855553379,-0.601975358,-0.121212973,-0.169600112,-1.050227028,-2.885856627,-1.879964727,-0.985370928,-0.248026637,-0.281045169,-0.052956217,-0.280459509,-0.043595194,0.020895162,-0.121874463,-0.151337581,-0.047623847,-0.083848543,1.056029524,0.212761917,-5.875319386,0.239887051,#DIV/0!,0.523188873,1.007760775,-2.291431845,-0.289521851,pre
0.113852143,1.589350811,0.753222361,-0.248748132,0.068362969,-1.391027283,-1.479370045,0.057166234,-0.654226095,-0.119986737,-0.416265923,-1.07270667,-2.946361802,-1.075476122,-1.132535098,0.130407404,-0.027449485,0.116550175,-0.057428808,-0.078008306,0.157016372,-0.151332731,-0.141924568,-0.015527101,-0.071885309,0.010269352,0.473946757,-3.20704484,0.280752137,#DIV/0!,0.244556682,0.328467649,-6.27761889,-0.813834148,pre
4.939479588,0.096043711,-0.119980109,0.169955655,0.731816323,-1.660875532,-1.540015733,1.127912909,-0.768412619,-0.104953329,-0.31064101,-1.1403584,-3.022603867,-0.65192455,-1.6452048,-0.040481551,-0.203940549,-0.226453267,-0.366116332,-0.02334129,-0.145172828,-0.097966431,-0.13352019,-0.083388811,-0.090834921,0.316766139,0.403691393,#DIV/0!,-0.028815352,#DIV/0!,-0.139128075,-0.118130251,-4.8731761,0.417576791,pre
2.019906995,0.93874095,-0.120482818,-0.503254625,0.198744256,-1.222578382,-1.429612786,1.26920212,-0.760764143,-0.108295213,-0.294840137,-1.056082993,-2.926047539,-0.436841682,-1.128559959,-0.134769375,-0.254607352,-0.183785059,-0.215072561,-0.042646149,-0.120864557,-0.109224607,-0.121743605,-0.116012218,-0.13445962,0.834019948,-0.81796504,-4.827079933,-1.029365768,#DIV/0!,0.272592565,0.200344972,-6.61303086,-0.286232762,pre
3.233008385,0.262944088,0.25074813,-0.709022839,-1.15610743,-1.478626073,-1.066224993,-0.036046783,-0.82752131,-0.122538938,0.063420279,-1.12377237,-3.040375326,-0.546068563,-1.345180425,0.037906598,-0.127373445,-0.107951789,-0.268629258,-0.085171066,-0.10569498,-0.170405739,-0.14115343,-0.069456796,-0.089186044,-0.229862932,-0.13194249,1.22249079,-0.427519835,#DIV/0!,-1.282115612,-0.248242938,#DIV/0!,-1.58273816,pre
-3.2791605,-0.399801227,-0.621309227,-0.555073653,-0.786686498,-1.064968339,-1.6495981,1.562175126,-0.667557081,-0.100655949,0.114356388,-1.071000952,-3.006837343,-0.012109778,-0.910793037,0.027292061,-0.197081838,0.241001621,-0.023224342,-0.097088101,0.210132356,-0.10107271,-0.11167651,-0.020480131,-0.085672459,0.400366583,-0.903843243,-10.23163795,-0.182175184,#DIV/0!,-0.887428088,-0.329039131,-6.151578965,-1.412414404,pre
0.200148105,0.07528399,0.491797309,-0.661077873,-1.161524217,-1.865596808,-2.39263794,1.446444368,-0.954160286,-0.090151211,-0.505433088,-1.158997822,-3.132474018,-0.229432016,-1.386488105,-0.012219914,-0.155391124,-0.314440708,-0.322140693,0.00086682,-0.297398603,-0.059044268,-0.107959351,0.038667891,-0.029300798,1.424879964,0.476685474,-0.685041905,0.277967108,#DIV/0!,0.10730908,-0.454952417,-4.98190701,-0.162621379,pre
-3.2791605,1.184432607,0.289145171,-0.00438031,0.298931437,-1.389890701,-1.183577165,1.824833408,-0.793144463,-0.08889154,-0.008345941,-1.07178232,-2.980443547,-0.592601718,-0.993771311,-0.029311597,-0.200257924,-0.204591886,-0.298192733,-0.010096144,-0.23254794,-0.070274681,-0.086805996,-0.005230185,-0.053320742,0.678737035,-0.559395916,-5.01792161,-0.484242876,#DIV/0!,-0.081105171,-0.223709689,-1.305558603,0.631671639,pre
-5.210491977,1.026070868,-1.819356833,-0.209251828,0.132146415,-0.874452075,-0.946082015,0.231454839,-0.628151617,-0.090650516,-0.253823323,-1.094805943,-2.963509391,-1.075270407,-1.077893303,0.06479438,1.821607043,-0.116423263,-0.175100469,0.041518021,-0.074645676,0.02311179,-0.055521334,0.043388606,-0.03300365,0.249652198,-0.006057301,-0.303535366,0.241771728,#DIV/0!,-0.001675387,0.297166261,-2.57726566,0.242212374,pre
-2.63135958,0.480512419,-1.637175143,0.052575238,-0.046509124,-0.999990825,-0.24239623,1.583457068,-0.558356945,-0.067311033,-0.150566889,-1.067375392,-2.95093758,-0.126443457,-1.09203557,0.302411877,0.061333893,0.059723793,0.012170921,0.05860011,0.116738441,0.013187214,-0.074183853,0.02711918,-0.055830485,1.925063844,0.203441501,-8.307979267,0.504556854,#DIV/0!,0.409515464,0.759887143,5.471643925,-1.155553209,pre
-8.82519722,-0.429048301,-0.356553642,-0.437979147,-0.806177241,-1.104121966,-1.070082666,0.110086931,-0.680464051,-0.10355172,-0.173657263,-1.102435424,-3.079843711,0.796372717,-1.079528996,0.209652849,-0.137589659,-0.25551247,-0.329324781,-0.152404847,-0.190124258,-0.178094399,-0.108032749,-0.022300135,-0.022651367,2.434918829,1.616049499,-7.64301041,-0.168911314,#DIV/0!,0.190799979,0.308508399,-4.140308193,-0.024973913,pre
-6.446261408,-0.018186552,2.104028283,-0.331103451,-0.188797538,-1.533593322,-1.518200195,-0.439451853,-1.00439394,-0.119794409,-0.406859974,-1.09426157,-3.068242048,-0.197352259,-1.163362682,0.004147927,-0.251193829,0.19340355,0.02772073,-0.057145319,0.251825327,-0.07437191,-0.103294018,0.013273008,-0.04247027,0.851024534,0.46711228,-3.802312658,0.176726562,#DIV/0!,0.651966194,0.261397033,-2.926172498,1.672367493,pre
-7.363543178,0.075335275,0.635422845,-0.398957589,-0.807550652,-1.305472733,-1.063557274,2.09503014,-0.892729669,-0.102156554,0.269258358,-1.072512132,-3.006729934,0.035044703,-0.996818324,0.125693041,-0.041797799,0.141924906,-0.043952439,-0.076605264,0.158211974,-0.107939237,-0.051048767,-0.058472603,-0.087168358,0.994893523,-0.06016577,-4.413996969,-0.457994389,#DIV/0!,0.06035571,-0.299502782,0.811139772,1.08469211,pre
-4.127612908,-0.464538569,-0.265778683,-0.259469094,0.006676731,-2.009645783,-3.349170661,1.680238911,-1.264779766,-0.078582289,-0.131165985,-1.078676892,-2.708825777,0.850267634,-1.254366494,0.125051331,-0.036299037,-0.054216072,0.030743721,-0.068682141,-0.034662604,-0.050536389,-0.040476263,4.0325E-05,-0.061874416,1.060027375,0.04627635,-3.70859218,0.113614084,#DIV/0!,-0.014210991,-0.001649858,1.555222987,0.068163612,pre
#DIV/0!,-0.910941871,-0.575272265,-0.295673807,-0.457125621,-1.59587419,-2.132340486,2.163739947,-0.981370088,-0.071246137,-0.081591372,-1.117164983,-2.906250594,-0.222923459,-1.336859274,0.091212668,-0.005989767,0.069141691,0.03883353,-0.016979946,0.062832121,-0.038514105,-0.045439729,-0.046723742,-0.045238444,2.283893171,0.468777386,-2.808909577,0.22421032,#DIV/0!,-0.119788269,-0.111883226,-1.421959606,0.065509056,pre
-5.169849875,-0.781262047,-1.204022237,-0.60690928,-1.749738753,-1.337802899,-1.446444743,-2.00520463,-0.756662983,-0.069013773,-0.478342351,-1.071402633,-2.991015671,0.153312302,-0.936201836,-0.069744568,-0.108919358,0.042324266,-0.014632334,0.06176566,0.09488357,-0.030168414,-0.013985511,-0.064149644,-0.064812364,0.623559674,-0.294108712,-5.63833666,-0.119488761,#DIV/0!,-0.7108342,-0.300545046,-0.892572068,-1.747828998,pre
#DIV/0!,0.039793722,0.794919047,-0.146387703,-0.272264676,-1.071129302,-1.62793154,1.745170717,-0.754753389,-0.001488564,0.006551536,-1.019533582,-2.893668626,-0.112828226,-0.935632819,0.2246174,0.143560765,0.162634673,0.082931578,0.166406062,0.161727382,0.025239446,0.023431366,-0.027646784,-0.029522859,1.174186578,-0.428220244,#DIV/0!,0.256366226,#DIV/0!,0.21206234,0.385365358,-0.979168895,1.643886762,pre
-3.2791605,-0.852944483,-0.913695759,-1.00050169,-1.416072764,-1.1247547,-1.205933869,0.230845211,-0.724694261,0.007124279,0.106263475,-1.07066593,-3.038450955,0.332117806,-1.372489745,-0.103925414,0.011676826,-0.13753234,-0.054726017,0.219086808,-0.109843007,0.037307661,0.043394684,-0.034877152,0.00320092,1.328682044,0.50801624,-4.82460976,-0.430942552,#DIV/0!,0.444931763,-0.613567442,0.226691305,-1.277991706,pre
-7.06053925,-0.118550903,-1.14194929,-0.320804267,-0.774651175,-0.992994975,-0.556868746,1.323957006,-0.473364603,0.02131301,0.231515256,-1.05289672,-3.046742223,-0.204299704,-1.332656246,0.165815675,0.020874946,0.006988721,0.022046878,0.226155159,0.023987112,0.081855875,0.057867927,-0.003471713,0.010027776,1.712819971,-0.081698443,-0.049197673,-0.107211443,#DIV/0!,0.94413294,0.372780028,-2.800132515,0.067050441,pre
7.46083546,-1.039310399,1.853736766,-0.916828875,-1.399633854,-1.646029847,-2.855542064,1.439487232,-0.941310441,0.029475287,-0.351788862,-1.02388417,-2.989684318,-1.281077075,-1.185912217,-0.09848672,0.03786339,-0.061564686,0.076680013,0.27382474,0.005580616,0.044342875,0.034972347,-0.041154271,-0.034242809,0.297050621,-0.961245602,#DIV/0!,-0.154941706,#DIV/0!,-1.078827476,-0.719847546,-6.27761889,0.26444434,pre
9.74517727,-0.810611691,2.208922263,-1.405462549,-0.923903901,-1.655569546,-2.139582154,1.19024992,-0.920472148,0.029477871,0.208408457,-0.984967351,-2.837030933,-0.032010868,-1.26260783,-0.046525518,0.009854968,-0.104050872,-0.009495153,0.182047587,0.026119551,0.029538178,0.036466664,-0.007534422,0.004559504,0.866643569,-0.172852632,-4.82460976,-0.356543302,#DIV/0!,-1.678829742,-0.184269908,-7.549325947,-2.479620842,pre
9.74517727,0.291677288,-1.068701566,-0.873122924,-1.431269367,-1.279713271,-1.824880792,1.907659386,-0.627053279,0.030206531,-0.414100451,-0.945334232,-2.866663646,-0.072993907,-1.003847398,0.066362516,0.036893921,-0.109909887,-0.092120068,0.172524723,-0.07917781,0.034728251,0.040094383,0.037553628,0.015634936,0.064559945,-0.654244018,-0.685041905,-0.318287414,#DIV/0!,0.717532145,0.399727988,-0.979168895,0.247367866,pre
#DIV/0!,0.158552205,1.088219612,-0.251805305,0.09019277,-1.119355129,-1.904625261,0.570668305,-0.560758432,0.02537187,-0.30772177,-0.933384384,-2.766004633,0.273092211,-1.011714387,0.256068593,0.104572422,-0.32380586,-0.141336475,0.110462233,-0.256738776,0.030153644,0.030937571,0.023675674,0.000604479,1.93210543,-0.414256951,1.22249079,-0.222593855,#DIV/0!,0.234998991,-0.322117815,-1.074170734,0.133184468,pre
#DIV/0!,-0.500080122,0.40447191,-0.679636029,-1.486315145,-1.562005005,-1.679634926,0.629899689,-0.782889955,0.03161363,-0.188206103,-1.022942228,-2.943155812,-1.172263145,-1.433947812,-0.055440415,-0.003754768,0.046316132,0.109135885,0.099521705,0.145170256,0.014023376,0.025166844,-0.021138134,0.004092986,1.222655155,0.14139534,-2.5925746,-0.153791432,#DIV/0!,1.091672327,-0.376275849,-6.10956558,-1.332856366,pre
#DIV/0!,-1.004463698,0.248067707,-0.617961422,-0.498481282,-1.814037891,-2.131548417,2.443031589,-0.903145698,0.038695797,0.229759784,-0.983916504,-2.989459036,-0.658950289,-1.084662929,-0.155678074,-0.18018752,-0.120416042,-0.188565196,0.024194701,-0.045537046,-0.014992833,0.018686008,-0.036319276,-0.009593568,1.345187201,-1.243596383,-1.801059485,-0.176168431,#DIV/0!,0.207841872,-0.162792415,-1.190096167,0.587018253,pre
#DIV/0!,-0.341769668,-0.019558131,-0.654730501,-1.435799066,-1.71597082,-2.632414119,2.906505959,-0.892135807,0.042189777,-0.433637819,-0.993089389,-3.011295366,0.309074643,-1.075261908,0.016075095,-0.006678825,-0.106283794,-0.051407576,0.207885541,-0.052944784,0.087489238,0.056157166,-0.005690968,0.023738791,1.047359957,-0.613785613,#DIV/0!,-0.31173857,#DIV/0!,-0.595298742,-0.500788214,-4.582174185,-1.059567511,pre
#DIV/0!,-0.306228115,-1.029482912,-0.718764087,-1.34272273,-1.215146889,-1.860197007,1.136487426,-0.630708201,0.046251014,-0.214399672,-0.956640565,-2.856207321,0.530304866,-1.066402244,0.122119494,-0.018578059,0.064143008,0.075246108,0.180502852,0.148099129,0.120040574,0.063606465,0.040603426,0.037510179,1.428787615,-0.568564072,-2.5925746,0.135218751,#DIV/0!,-0.960881254,0.115950119,-4.8731761,-0.806226531,pre
-9.30382633,0.679997746,0.196032778,-0.476367897,-0.608140335,-1.318818516,-2.04896259,0.788354278,-0.598786183,0.041553299,-0.133351533,-0.970399946,-2.867528102,-0.282803061,-1.19550863,0.281891176,0.178175762,0.243955047,0.162577505,0.215302711,0.286275751,0.157587778,0.056812624,0.080617558,0.06536064,0.04904497,-0.98159641,1.22249079,-0.365918937,#DIV/0!,-0.471029126,0.173875297,-2.745318893,1.63444862,pre
-5.811440787,-0.147866376,1.635367184,-0.860703292,-0.704027341,-1.314608729,-1.594353146,-0.218037977,-0.542899126,0.042602378,-0.205080052,-1.031446809,-3.126143122,-0.467900234,-1.078954684,0.110457469,0.010344808,0.05610993,0.097087588,0.147299104,0.176178429,0.129324271,0.037369951,0.151029349,0.093046148,1.133237262,-0.76600585,-6.4082365,0.333893169,#DIV/0!,0.614594479,-0.064392994,-0.979168895,-1.259408674,pre
-8.18218279,0.039793722,1.365008948,-0.529274065,-1.474806655,-0.999605333,-1.023968366,4.311163326,-0.330156187,0.073995693,-0.342583276,-1.021527535,-3.076854205,-1.410176735,-0.941481014,0.137259541,0.13105392,0.179846525,0.255666433,0.165811694,0.24305577,0.098469749,0.027667958,0.144727896,0.077095145,0.323908289,-0.540328149,-11.98239994,-0.139122409,#DIV/0!,1.006113389,-0.153555862,-6.27761889,-2.139282814,pre
-7.07758093,-1.425771634,-0.519856847,-0.834220383,-0.659907259,-1.424734332,-1.958631391,0.741415569,-0.646099384,0.047498432,-0.284235079,-1.030290692,-3.096800135,-0.467811837,-1.098875333,0.35712834,0.164330086,0.080358401,0.170877033,0.068475677,0.097415251,0.012961903,0.030293707,0.123534652,0.076378947,1.059730633,-0.586401844,-2.5925746,0.099784479,#DIV/0!,0.487637787,-0.065254354,-4.582174185,-1.158605881,pre
#DIV/0!,-0.74419613,1.733402514,-0.312851062,-1.226336044,-1.003270786,-1.365813046,0.36149466,-0.431735935,0.047618215,-0.164710202,-1.052223898,-3.245237399,-0.883559194,-1.16891566,0.000278438,0.010408154,-0.078694985,0.099384973,0.146982523,0.070713722,0.048482431,0.018095993,0.079876134,0.056921038,0.995068088,-1.231300636,-7.63658047,-0.268596576,#DIV/0!,0.038324673,-0.539980587,-3.484176758,0.359509641,pre
-7.06053925,-0.341769668,0.131184461,-0.860807081,-0.561557153,-1.661350746,-1.517274928,0.257365364,-0.872268918,0.049440088,-0.342934028,-1.060709845,-3.90894549,-0.687635427,-0.971134602,0.109712407,-0.072231862,0.064552553,0.030861703,0.026325466,0.091698719,-0.01555046,0.009090272,0.056122364,0.042940676,1.225606796,0.155771851,-3.672356128,-0.409576788,#DIV/0!,0.146842129,-0.179228733,2.226741393,0.413145416,pre
-3.2791605,-0.933431877,0.668272567,-0.792657335,-0.993285734,-0.771240554,-0.751177145,0.963500308,-0.44347632,0.048061314,0.029017068,-1.07558266,-4.091474294,0.223119963,-1.252729577,0.176074306,-0.025430445,0.067716241,0.075672537,0.043104761,0.134013924,-0.01163292,-0.016557728,0.038955538,0.031464738,1.044545664,0.223359849,-9.528797787,-0.282923289,#DIV/0!,-0.39524179,-0.186597293,-8.185179475,-1.354991937,pre
-3.2791605,-0.588765443,-0.720618861,-0.225106946,0.399253419,-1.678014683,-2.472630453,0.987772352,-0.83121259,0.033330682,-0.386681334,-1.002223104,-2.923592757,-0.133753784,-1.179830498,0.164805448,-0.006350788,0.142649687,0.124365997,0.062344967,0.193223269,0.025944365,-0.036918307,0.07581806,0.04750354,0.989368309,0.263167654,-3.70869136,-0.023662587,#DIV/0!,0.137129584,0.052443108,-3.628393893,-1.191097219,pre
-7.06053925,0.703525358,-0.332678899,-0.274653524,-0.966890806,-1.043738514,-0.932005049,-1.15882449,-0.455600307,0.009898415,-0.268698745,-1.010669792,-2.921393989,-0.862233621,-1.174435782,-0.148181022,-0.147582375,0.190776419,0.010451339,-0.027306273,0.108552849,-0.053988634,-0.071686625,0.085882274,0.047497152,0.551807226,0.206333937,-6.04520011,-0.347190693,#DIV/0!,0.676247587,-0.609086666,-0.475863513,1.094708091,pre
-9.080122313,-1.292505261,0.354690925,-0.589435922,-1.406566396,-1.237481744,-1.446617218,1.357570446,-0.569808617,0.020232003,-0.064599689,-1.055847155,-2.957805632,-2.248007774,-1.533366038,0.004357331,-0.133069896,-0.224809476,-0.212118556,-0.109983977,-0.10768685,-0.105075787,-0.091851746,0.055643131,0.018642389,1.906011059,-0.179615498,-6.57566023,0.480229204,#DIV/0!,0.901505166,-0.480137514,-1.969581432,-0.609638491,pre
-7.06053925,1.152416592,1.277677963,-0.457655534,-0.271771643,-1.51275711,-2.517259526,-0.262711561,-0.769785177,-0.280709956,-1.330180849,-1.243722843,-3.549493886,-0.395880548,-1.271656096,0.037726509,-0.114104961,0.115765573,-0.354161997,-0.088081779,-0.183996356,-0.238090112,-0.282586669,-0.063103118,-0.219345376,-0.994007543,-0.624374142,-1.638808253,0.10378151,#DIV/0!,0.787405451,0.30964142,#DIV/0!,2.054446764,pre
-9.30382633,1.21987159,-0.627378705,-0.458970335,-1.178106886,-1.156065489,-0.525343124,-0.420477629,-0.675069692,-0.191955869,-0.854094712,-1.183356863,-2.604474829,-0.028135712,-1.311752904,0.195438092,-0.017140192,0.157067999,-0.024938415,-0.234539681,0.054883275,-0.157357195,-0.19065483,-0.054017954,-0.079854185,0.726513477,-0.652037754,-6.988716725,-0.376243672,#DIV/0!,0.986504094,-0.438178863,-6.025538925,0.061681707,pre
#DIV/0!,-0.018186552,-0.297238587,-0.41321256,-1.583178169,-1.155872132,-1.648303565,0.412255335,-0.717395506,-0.081909318,-0.515344014,-1.030737508,-2.550275491,-0.803070254,-1.300482774,0.011367328,-0.045286615,0.215405194,0.003365555,-0.123912134,0.091226161,0.000324539,-0.082225419,0.037912585,0.018102742,0.872064789,-0.200972091,-2.5925746,0.215376917,#DIV/0!,-0.167819695,0.028908524,#DIV/0!,-0.340350112,pre
-3.2791605,1.126401048,0.344662101,-0.419841372,-0.90964356,-1.462134735,-1.476308338,1.953126649,-0.776974422,-0.001037099,-0.703999042,-0.979784311,-1.757360813,-1.760614421,-0.83236445,-0.130521676,-0.081980111,0.035910019,0.132256112,-0.124313447,0.041299332,-0.013331145,0.031395595,0.038665859,0.090848997,0.682871516,-0.513707943,-7.0254848,-0.777838829,#DIV/0!,0.410815468,-0.191911227,-1.95833802,-1.686841386,pre
#DIV/0!,0.233645729,-0.293706671,-0.14818063,-0.378528943,-1.655258371,-2.578910544,-0.3750293,-0.953416182,0.017669661,0.103666018,-0.982303607,-1.830931185,0.053925424,-1.246996039,-0.103986741,-0.163884942,-0.005441145,-0.179910725,-0.201006854,-0.001208967,-0.005186356,0.063639761,0.017118477,0.138009101,2.105887082,0.206623215,-2.5925746,0.437830646,#DIV/0!,-0.636838282,-0.479128256,-2.617231894,-0.993809012,pre
7.46083546,-1.104845163,-1.395427696,-0.669787995,-1.809849355,-2.149119794,-3.026777643,-1.17868424,-1.107648909,0.019124025,-0.292675467,-0.887925212,-2.09193393,0.248036819,-1.176104059,0.189433032,-0.066215668,0.107604776,-0.065004748,-0.125757292,0.063375311,0.053254831,0.073590435,-0.01799541,0.074743794,1.273801431,-0.894570321,-1.730532963,0.284875389,#DIV/0!,-0.277073532,0.126877174,-3.39809831,1.603422274,pre
-7.06053925,0.579718851,-0.02472762,-0.375986829,-0.276538798,-1.269265068,-1.497800716,-0.18938597,-0.648042391,0.046424411,-0.073756241,-0.903375567,-2.291908194,-0.895098843,-1.031044467,-0.176892368,-0.241999589,0.112475024,0.047067671,-0.181138916,0.186342769,0.044613175,0.065184442,0.078879077,0.162303712,1.841173979,0.406286444,-8.307979267,-0.437469163,#DIV/0!,0.18100796,-0.149221038,-5.14732242,-0.912503574,pre
-3.2791605,-1.134143522,-0.973406802,-0.425588712,-1.318187615,-1.245154987,-1.648085191,0.560913612,-0.658134804,0.050999937,0.068145533,-0.922219318,-2.38294556,-0.596446314,-1.207327614,0.075660179,1.847920472,-0.316593794,-0.306550075,-0.143658337,-0.283037097,-0.007389074,0.064032011,0.002176572,0.139971538,0.420378843,0.414352174,-0.049197673,-0.061795707,#DIV/0!,0.226223832,-0.241272097,-1.305558603,-0.027760258,pre
-7.06053925,-0.629759946,-1.229672629,-0.41867922,-0.98300313,-1.748917881,-2.337912185,-1.398764424,-0.891881527,0.032181839,-0.336391117,-0.931995202,-2.315537763,-0.124417401,-1.3719742,0.086121486,-0.155613917,-0.208740271,-0.235375065,-0.159900779,-0.106366296,-0.020963289,0.041756929,0.027217175,0.133702555,1.108062592,0.279432571,-5.183283518,-0.228641967,#DIV/0!,0.45776231,-0.41881749,-0.702814196,-2.590218,pre
-3.2791605,-0.810560406,-0.961114435,-0.101851931,-0.418706063,-1.395046079,-1.427471441,1.333685327,-0.815878058,0.026688286,0.244494073,-0.919669961,-2.34097321,-0.296707662,-1.213939437,-0.160424252,-0.278868312,-0.169617868,-0.224895592,-0.200786787,-0.074331634,-0.034244646,0.03135443,0.006430004,0.123534096,0.279814686,0.613357032,-10.87912083,0.044317214,#DIV/0!,-0.159511936,-0.051278461,-4.267944951,-0.472241497,pre
-7.551952998,-1.473305721,0.219280186,-0.673006305,-2.087544645,-1.440335295,-0.780870214,0.601765859,-0.638726659,0.011319144,-0.429975164,-0.930805872,-2.194982885,0.141716372,-1.203231248,-0.077204775,-0.209554225,0.003530176,-0.042364814,-0.181870291,0.101315102,-0.037894805,-0.001750831,-0.045868545,0.067214577,1.255035283,-0.504702592,-4.876896145,0.528073283,#DIV/0!,0.451583358,0.134997416,-3.585218382,-1.737977758,pre
-7.067355922,-1.127335169,-0.708743167,-0.851065933,-0.947302576,-1.884486792,-3.697567603,0.51263677,-0.947747533,0.012336245,-0.235779045,-0.884642107,-2.237135542,0.297839964,-1.218699564,-0.141452239,-0.252106581,-0.336594351,-0.186366326,-0.25718713,-0.294745257,-0.136553103,-0.029329521,-0.014789356,0.094019127,0.319910468,0.015860176,-4.497156621,-0.452752156,#DIV/0!,0.211872057,-0.11889012,-6.27761889,-0.039600248,pre
-13.71521505,0.039793722,-0.722969832,-0.286767985,-0.516420315,-1.799826259,-2.084130888,3.300024198,-0.863597051,0.029250872,-0.102105118,-0.913083868,-2.326603674,-0.050929627,-1.209681395,0.040612298,-0.139417407,-0.010846348,-0.138456644,-0.142631936,-0.005133182,-0.003023433,0.006800424,-0.001759048,0.089812101,-0.345846288,0.136050537,-4.10342579,-0.033909148,#DIV/0!,0.308254273,-0.195597237,-1.230901482,-0.206638795,pre
-8.18218279,0.680049031,0.065406254,0.019689524,-0.752672374,-1.594082286,-2.247802574,2.110155954,-0.797591499,0.012747443,-0.604983987,-0.939494626,-2.458229303,-0.621099636,-1.372543302,-0.329216914,-0.31282647,-0.098321346,-0.109829891,-0.199880744,-0.076588855,-0.011825117,0.002229362,-0.001829611,0.077633353,-0.037628535,0.484933016,-7.022408485,0.110287183,#DIV/0!,0.471364945,-0.134431551,-2.444877228,-1.003348318,pre
-9.30382633,1.080372246,0.578584621,0.357529833,1.27785868,-1.291518408,-2.013458792,1.549786609,-0.680219621,0.005111854,-0.432299405,-0.875443279,-2.353126932,-0.089062726,-1.038679792,0.114480478,-0.125990482,-0.108069921,-0.128410884,-0.177996232,-0.103289975,0.00304111,-0.003308529,-0.013551002,0.059581683,0.676026108,-0.809282996,-2.5925746,-0.06745284,#DIV/0!,-0.156035698,-0.525807695,1.555222987,3.361942848,pre
-6.58530884,1.11246068,-0.780109166,0.524766518,1.288968444,-0.808928289,-0.420602599,1.491778797,-0.431788726,0.005261034,-0.021837074,-0.897716136,-2.436121582,1.046360419,-0.916758532,0.254139592,-0.052332249,-0.180377676,-0.237100449,-0.209374986,-0.122951059,-0.049204556,-0.004869057,0.023208923,0.071798353,1.80385542,-0.225280174,-2.41135466,-0.228171128,#DIV/0!,0.113743089,0.033702324,-3.358342786,-1.635983446,pre
-10.36605537,1.026019583,-1.477984004,-0.008167016,0.053259373,-1.451246823,-1.497482217,1.771135542,-0.709209911,0.020737318,-0.166153492,-0.864939505,-2.443485308,0.304442197,-0.941391774,0.098709166,-0.142143666,-0.151842193,-0.16975735,-0.22616102,0.01286064,-0.095643886,-0.014389203,0.01668526,0.096920685,0.61089228,0.065074096,-1.801059485,-0.286400994,#DIV/0!,-0.703594288,-0.686452657,-4.158238892,-1.211565519,pre
-5.169849875,0.802920502,-0.701209957,0.158325148,-0.067346526,-1.510992605,-2.367641504,0.563850972,-0.747214002,0.029455979,-0.259447784,-0.832726772,-2.49841082,-1.016546693,-0.740625187,-0.186759889,-0.225579153,0.006522395,-0.003044256,-0.192725021,0.152510729,-0.053392072,-0.003941939,0.053433956,0.097133236,0.967007896,-1.241944491,1.22249079,0.227452514,#DIV/0!,0.494330504,-0.046550899,-0.979168895,3.042688132,pre
-5.169849875,0.579770136,0.900244446,-0.050007915,-0.891503945,-1.307343956,-1.471493453,1.411769523,-0.634732232,0.029343517,-0.171008527,-0.881765008,-2.549207162,-1.550337501,-1.061326908,-0.004508147,-0.032855485,0.097965475,0.034279302,-0.127210394,0.111115857,0.002000969,0.015879576,0.072174252,0.102703533,0.259071203,-1.219858443,-4.82460976,0.334073891,#DIV/0!,-0.700875582,-0.22032873,-6.27761889,-1.890986019,pre
-1.469994863,1.5011048,0.035692347,0.142518285,0.201912625,-0.8787932,-1.288448906,0.406893374,-0.404786845,0.018103439,-0.141123985,-0.887136841,-2.592267203,-0.244684221,-1.072701694,0.068312498,-0.09045181,-0.196592002,-0.121369213,-0.13667204,-0.029208137,0.03758324,0.04444023,0.07412696,0.128969559,0.304395487,0.271655484,-6.4082365,0.061364034,#DIV/0!,-0.421326127,-0.338147077,-3.294382718,-1.730344066,pre
9.74517727,1.824377749,1.43952581,0.505834682,0.862319474,-1.251491046,-1.038878648,1.581594826,-0.543719077,0.001348874,-0.452525679,-0.862700379,-2.491692353,-0.933170975,-0.887269654,0.12179396,-0.053948408,0.009519092,0.053061812,-0.077924013,0.151928778,0.07404442,0.036325789,0.087803239,0.111074301,0.141767683,0.197196658,1.22249079,0.164304005,#DIV/0!,-0.201507543,0.069187426,-6.27761889,2.334323644,pre
-7.06053925,2.3451789,-0.827718493,0.467269801,1.211388818,-1.214938947,-1.936506842,-1.296193864,-0.58605153,-0.000636656,-0.419608853,-0.93093512,-2.664583468,-1.03317197,-1.124074615,-0.082125501,-0.132373166,0.020597905,0.007297431,-0.176842731,0.113227148,-0.022636924,-0.00149413,0.0652516,0.074372989,0.976564255,-0.514441411,-7.654169083,-0.476712772,#DIV/0!,0.131159392,-0.708134903,-4.8378586,0.827966192,pre
#DIV/0!,-0.564920034,0.815971935,-0.314778037,-0.734772283,-1.698294459,-1.874933718,-1.571584554,-0.824484063,-0.010690502,-0.007606659,-0.931615395,-2.719253039,-0.580086564,-1.154754874,-0.058803478,-0.151671879,0.018827957,-0.07789425,-0.108138795,0.119140096,0.049845911,0.027746895,-7.2453E-05,0.082343118,-0.457624564,0.1269055,-7.15482807,-0.543335208,#DIV/0!,-0.732771333,-0.124268355,-6.17678695,-0.425313448,pre
-5.169849875,0.579718851,0.673307927,-0.094927021,-0.574241447,-1.432245695,-1.432743521,0.544941744,-0.625636065,0.008971802,0.055961643,-0.912181808,-2.66198926,0.198512542,-1.164082196,-0.048535476,-0.141504525,-0.060696551,-0.109805546,-0.226005753,0.02796999,-0.085592856,-0.004758302,0.004943687,0.055648009,0.381603225,-0.917739549,-3.179139453,-0.246147429,#DIV/0!,-0.570542138,-0.537394715,-4.117978455,-0.989312156,pre
#DIV/0!,0.664034743,0.388679188,0.029650637,0.068894648,-2.170415534,-2.465503072,0.406851966,-0.984585749,-0.00566096,-0.098526486,-0.90768416,-2.632802248,-0.087245132,-1.105952141,0.022186011,-0.043662274,0.109371046,0.024530143,-0.109473471,0.161083834,0.033992234,0.019291444,0.040460042,0.076061729,1.237911311,-0.599118668,-0.685041905,-0.035057319,#DIV/0!,-0.371668734,-0.626586913,-8.125278233,0.319751696,pre
-3.2791605,1.630835909,3.380494335,0.267280972,0.256219476,-1.17066576,-1.476990014,2.441745208,-0.5364572,0.020066166,-0.271054906,-0.864352728,-2.527163911,-1.421153504,-0.902715821,-0.122126696,-0.125298757,-0.061712393,0.021419198,-0.10130011,0.146948321,0.024141437,0.024330416,0.067971702,0.067147238,0.616714266,-0.526632749,-0.685041905,0.207857097,#DIV/0!,-0.479386256,0.042580777,-6.27761889,0.335921217,pre
-5.730671645,1.342743061,1.574483702,-0.068087573,-0.492750026,-1.489646557,-2.303799906,2.38106427,-0.69631958,0.027085062,0.219245371,-0.855035692,-2.638301849,0.353509419,-0.645342541,0.138665992,-0.007189737,-0.008048963,-0.049657126,-0.075701055,0.037009101,0.060466282,0.05696647,0.103206173,0.107701064,1.320445909,0.017206617,#DIV/0!,-0.025211734,#DIV/0!,-0.283328317,-0.130643062,-2.926172498,-1.114814628,pre
-9.30382633,1.648420261,1.400577983,0.270327037,0.676472577,-1.404057307,-1.920943578,0.687858479,-0.64826119,0.040147506,-0.534532051,-0.90942005,-2.691310238,-0.755079104,-1.02058467,0.028600116,0.021854743,0.204652868,0.181493402,-0.000484953,0.254742431,0.141777122,0.099988909,0.047834235,0.067480632,1.182559397,-0.837075598,1.22249079,0.020315192,#DIV/0!,0.978725214,-0.83116382,-3.39809831,0.60094401,pre
-3.2791605,0.133366834,1.754837385,-0.302570713,-0.624981856,-1.792517121,-2.703647369,-0.888343148,-0.751253546,0.066050931,-0.008555579,-0.872727479,-2.54268949,0.756577472,-1.072557029,0.303532993,0.190061028,-0.001643511,0.155757286,0.008123401,0.052622191,0.103369375,0.122691535,0.088571223,0.122712094,0.018938919,-0.662963181,-4.60847362,0.098182819,#DIV/0!,-0.799721047,-0.785106962,-5.77345896,-0.886040316,pre
3.233008385,1.947508102,-0.113888199,0.33068757,0.944332794,-1.687337325,-1.756922567,1.973689068,-0.619308451,0.109180209,-0.197277907,-0.88095634,-2.668155907,-0.597061966,-0.945347979,0.028588987,0.095294852,-0.135339325,0.069083808,0.147302864,0.032392668,0.178168279,0.177360823,0.172148155,0.184520235,-0.032207351,0.32034491,-4.82460976,-1.128353712,#DIV/0!,0.681749094,-0.16560198,-1.305558603,0.836909963,pre
0.122713662,1.507964438,3.235172981,0.117931078,0.712501623,-1.205694789,-1.284682904,0.286267631,-0.56805682,0.127756219,-0.472653961,-0.86823069,-2.748679325,0.073872092,-1.069486622,0.132025274,0.1830477,-0.048895821,0.296181354,0.166414112,0.136075911,0.187757057,0.199761497,0.133835471,0.17587188,2.477414306,-0.052327232,-3.70859218,-0.08791078,#DIV/0!,0.101393869,-0.1194246,-0.595047953,0.336045493,pre
-7.06053925,-0.719264218,-1.083624717,-0.292723709,-0.122888492,-1.327586423,-1.1394476,2.062837547,-0.534785054,0.148424857,0.080916218,-0.881148923,-2.739334843,0.066170633,-1.073258162,0.253501297,0.250371229,-0.046813267,0.069729305,0.270824618,0.048237996,0.282004133,0.205425991,0.11851046,0.188576151,0.605367012,0.063508985,-2.5925746,-0.456263789,#DIV/0!,-0.642382777,-0.354325367,-5.312930776,-0.582516377,pre
1.062285423,0.421254542,-0.937115751,-0.508622265,-1.231217481,-1.516345633,-1.486890691,-0.209902313,-0.7093712,0.128014395,-0.091407849,-0.815136684,-2.611495161,-0.740582716,-0.856471516,0.065693538,0.15030647,0.188653902,0.230190245,0.181028329,0.24584652,0.233510905,0.187273633,0.151119413,0.183008848,0.442739202,-0.29681579,#DIV/0!,-0.087028044,#DIV/0!,-0.607363342,-0.103477749,-6.27761889,-1.021013983,pre
#DIV/0!,1.630784624,0.241152006,0.278604641,0.455134211,-1.314458443,-0.859154511,0.739751443,-0.417352252,0.126085402,-0.128692887,-0.809914232,-2.67135172,0.524676053,-0.88342821,0.007751156,0.055710578,-0.050093156,0.094084356,0.200025875,0.049453857,0.239160477,0.175918515,0.097224018,0.159202725,0.79855813,-0.592037111,1.22249079,-1.012436372,#DIV/0!,1.117159421,-0.633133816,-0.979168895,-0.971727687,pre
-3.2791605,0.72845727,1.066311384,0.313725991,0.345057657,-1.569759686,-2.739789969,1.783584164,-0.689040426,0.139561063,0.243121426,-0.858838039,-2.699544311,-1.224060183,-1.121365206,-0.091737149,0.031543583,0.034232188,0.15725158,0.144550761,0.130112828,0.188699862,0.150204733,0.120209086,0.147961471,0.253249223,-0.701190143,#DIV/0!,0.223038413,#DIV/0!,-1.058464215,-0.260142428,-0.979168895,0.095863483,pre
-3.2791605,-0.564971319,-0.636233075,-0.285420843,-0.748377632,-1.204085215,-1.094729527,0.923330784,-0.533879273,0.125280094,0.036661911,-0.804812051,-2.625690507,-0.76146232,-0.843206966,0.058680005,0.068090059,0.119807126,0.154718227,0.153273679,0.190070445,0.234153639,0.136755036,0.096452502,0.13807599,-0.440685365,-0.159125391,-7.16121769,-0.664804774,#DIV/0!,-0.93358972,0.032640725,-3.071708602,-0.823197356,pre
#DIV/0!,-1.623723808,-0.25151386,0.304856009,1.079685459,-0.988631206,-0.768929772,0.838227098,-0.444990322,0.099084059,0.056542441,-0.802054797,-2.562952448,-1.111511788,-0.794080626,-0.05031983,-0.023317691,0.138012449,0.119811135,-0.04941985,0.147256497,0.054709009,0.092278217,0.087383271,0.130940743,1.04640391,-0.151098899,-4.411733985,-0.214904945,#DIV/0!,-0.016836497,-0.398573006,-1.584534192,-1.027590485,pre
-6.291493415,-0.192925201,-0.733612206,0.560072991,0.87348106,-1.466998745,-2.321441238,2.293902397,-0.706500945,0.107830862,0.624065055,-0.846155531,-2.630730487,-0.412929073,-1.078274072,0.068038225,-0.045559662,-0.009474766,-0.119680994,-0.043783809,0.054306652,0.106282635,0.1021514,0.091354828,0.148397666,0.558425816,0.795819737,-6.57566023,-0.134962847,#DIV/0!,-0.261397583,0.012302982,-1.221531987,-0.84650341,pre
-5.169849875,0.486094454,-0.189523894,-0.219740941,-0.112280155,-0.682147276,-0.512281413,1.245441028,-0.235412479,0.106360467,0.046001116,-0.78127405,-2.339281986,-0.422873092,-0.847248596,0.189213231,0.01146736,0.178811063,0.069340691,0.024980883,0.203236761,0.178934547,0.119648724,0.160604522,0.16712176,1.273504707,0.648749802,-8.64007187,-0.467084034,#DIV/0!,-0.569217536,-0.111113707,-1.84635228,1.936435889,pre
#DIV/0!,-1.240256782,-0.139012573,0.000352828,0.10028443,-0.974161551,-0.749570669,-0.299349046,-0.50281319,0.083642889,-0.002821761,-0.859178251,-2.524844241,-0.694210892,-1.06337238,0.066546638,-0.018717364,0.198009486,0.011111754,0.025392714,0.226907421,0.202703671,0.112529316,0.090347795,0.141941381,1.48905756,0.641513924,-5.114577535,-0.186027523,#DIV/0!,-1.275353296,-0.521524203,-5.516533071,-1.831934507,pre
2.09083748,-0.392338138,1.828397682,-0.150080079,-0.032970209,-1.353735882,-1.860176069,2.441800194,-0.573528959,0.113561183,0.183809332,-0.834077102,-2.611986254,-0.33389099,-1.015595938,0.230936974,0.058173333,0.059719253,0.01352754,0.017526207,0.052814956,0.156398423,0.100191523,0.071542336,0.115983688,1.345187207,-0.295835325,-4.82460976,-0.191054228,#DIV/0!,-0.588592001,-0.63235894,-0.766532085,0.131315349,pre
-6.759737588,1.5011048,1.089953023,0.259572328,1.192788751,-1.24135432,-1.699675648,0.587703753,-0.447393754,0.1046968,-0.047746736,-0.798855996,-2.568416881,-0.337653434,-0.771386269,0.13645568,0.011561172,-0.106521791,-0.138292471,0.070378243,-0.080090497,0.214657209,0.122260284,0.079726516,0.132142157,0.801269063,0.138140616,-5.352550983,-0.67472772,#DIV/0!,0.186018714,-0.469052584,0.524340065,-1.650266958,pre
-7.81966273,-0.341752554,-0.642983537,0.160196596,0.279131661,-1.641367639,-1.909813933,1.590868048,-0.726523516,0.112898718,0.431405134,-0.846911305,-2.556157779,-0.063951678,-1.085943281,0.233683504,0.020070938,0.00809939,-0.038875767,-0.050396945,0.119382833,0.146131354,0.121029119,0.127264708,0.175387265,0.826443757,0.860330451,-3.746233147,-0.29123784,#DIV/0!,-0.075858692,-0.160990153,-2.110116937,-1.999145714,pre
-5.169849875,0.168088058,-0.627815014,0.250997111,0.913689048,-1.608139487,-2.259127467,3.360306189,-0.562566267,0.132993319,0.514923834,-0.835927451,-2.566247151,0.384938543,-1.0424617,0.07292513,-0.089969297,0.159884782,0.046432516,-0.026968475,0.201288436,0.164830408,0.119475341,0.107150285,0.162756672,0.79855813,0.131673076,-7.368251167,0.007686096,#DIV/0!,0.300692581,-0.405250811,-2.800132573,-0.196409907,pre
#DIV/0!,-1.069354895,-0.809028457,-0.479132937,-0.91509634,-1.183687861,-1.461156426,1.457217839,-0.551186312,0.120225718,0.185787916,-0.812400318,-2.546499753,-0.481356612,-0.921559013,0.11229937,-0.037878655,0.027091886,-0.127275174,0.027211475,0.046325532,0.223747561,0.122854333,0.110959405,0.152350368,0.878910203,0.261752926,-2.754825833,-0.394452261,#DIV/0!,-0.535830574,-0.226802341,-6.151578908,-1.89080594,pre
#DIV/0!,0.802869217,-0.02380781,0.18195332,0.348142212,-1.383380196,-1.679975853,-0.637415325,-0.482289156,0.112282797,-0.010350768,-0.835834105,-2.598994277,-1.072135061,-1.101711889,0.016849805,0.003486521,0.097890569,-0.002398079,-0.009893827,0.147333101,0.156946377,0.116318035,0.11661799,0.157549243,1.939261379,0.367529229,-8.64007187,0.060789708,#DIV/0!,-0.443823356,0.010591363,-2.548573675,0.047482995,pre
-7.773724066,-0.047360044,-2.27240535,0.193545103,0.299110935,-1.144488651,-0.905939976,2.490169131,-0.346304592,0.115736242,0.215882894,-0.777518845,-2.602118207,-0.521656204,-0.660471168,-0.00371103,-0.114172665,0.216324707,0.151067756,-0.009340721,0.329707226,0.197071661,0.128187149,0.195681738,0.187271587,2.484066363,0.431438184,-4.662606835,0.674307225,#DIV/0!,1.475902699,0.00366556,-1.84635228,-1.059793424,pre
-4.355722048,0.518668265,1.947252167,0.675393017,1.396205641,-1.201608585,-0.96595725,1.384084226,-0.465808327,0.112002344,-0.131849888,-0.824261637,-2.530197644,-0.954239921,-1.068357563,0.25360487,0.141482266,0.221911377,0.070225364,-0.117310094,0.197498231,0.095807028,0.080758826,0.168226244,0.136966562,1.052885195,-1.414659863,-8.40350485,0.127211598,#DIV/0!,-0.279948613,0.616258539,0.786981103,0.184515821,pre
0.39360094,1.249221234,0.120092503,0.441731642,0.614765256,-1.157559986,-0.260114008,1.392795366,-0.517792685,0.106921808,-0.02800451,-0.327919591,4.023297848,-1.054298646,-2.012410251,0.23991151,0.068711439,0.203099104,0.155531318,-0.086309895,0.31149215,0.164435038,0.103127407,0.200948095,0.169881105,0.148613091,0.017827208,-4.50040555,0.119483778,#DIV/0!,0.389300221,0.058662672,-1.17500272,-0.594727045,pre
3.233008385,1.511896404,2.43427453,0.376327437,1.109522557,4.336472964,4.662657165,2.285072274,-1.109621132,0.128786704,0.214840612,-1.964106003,17.73302669,-0.449081843,0.572468228,0.046326877,-0.072290919,0.276699722,0.199338782,-0.009543038,0.30368968,0.290350634,0.126542444,0.218763409,0.17198161,1.204325869,-0.466400473,-4.60847362,0.096636693,#DIV/0!,0.401925897,0.528879472,-3.86589849,0.082332614,pre
8.603006365,1.193446464,0.792082391,0.631649738,1.306625892,4.756553412,4.895916986,1.876981934,-0.984028451,0.123021686,0.05139343,#DIV/0!,17.74818611,0.155055301,-0.518705459,0.102089856,-0.055595206,-0.107839892,-0.094916682,-0.042639785,0.007320627,0.18284488,0.08314078,0.197557746,0.157951407,1.991521307,-0.965027561,1.22249079,-0.017481352,#DIV/0!,0.597703982,0.16631943,-0.402987483,-0.949806266,pre
#DIV/0!,0.263046658,0.520194505,0.10121914,0.198698522,5.189591791,5.569522358,2.133330083,-0.92964258,0.099936142,0.266697607,#DIV/0!,17.04580793,-0.282967457,3.377427298,0.111301843,-0.055673728,0.096291326,0.063910003,-0.085674809,0.19865277,0.095868021,0.068278543,0.175337138,0.145786969,0.746388408,0.41757926,#DIV/0!,0.389410247,#DIV/0!,-0.086249144,-0.280727308,-2.732605666,-0.271940536,pre
-3.2791605,1.342743061,1.25876484,0.049951945,0.238937617,5.133709765,6.240494965,0.301592141,-0.834932941,0.096965756,0.012941451,#DIV/0!,16.9091505,0.439704955,2.924624812,0.255975421,-0.010387754,-0.271334181,-0.195262742,0.024891284,-0.146170563,0.218437621,0.085076469,0.168451963,0.155727681,1.378437557,0.590362292,-4.50040555,0.022816012,#DIV/0!,0.594742914,0.050033981,-0.53731675,1.831496267,pre
#DIV/0!,1.3359959,2.103113378,1.010442048,1.844537839,5.266705775,4.914211082,0.67104974,-0.920675166,0.089955141,-0.081373393,23.20310783,17.41866436,-0.437742348,1.366781393,0.072923455,-0.111854275,0.185353427,0.058871535,3.4807E-05,0.266022275,0.27650495,0.100159403,0.171773232,0.134433266,1.60526634,0.206664739,-2.5925746,0.420301434,#DIV/0!,0.512618572,0.047707089,1.6947552,1.648578847,pre
-1.600203204,-0.341718383,0.429136712,-0.03784479,-0.209970254,4.879502321,4.727795123,0.928295255,-0.909076399,0.090365083,0.049856697,#DIV/0!,17.09963264,-1.727091024,3.319703247,-0.222461014,-0.241659715,-0.092675798,-0.082502308,-0.103762628,0.018800489,0.16838995,0.06602956,0.159098447,0.118867271,2.146936711,-0.074910261,-6.174381973,0.820898753,#DIV/0!,-0.185101536,-0.308702467,-8.185179475,-1.013204775,pre
-3.2791605,1.565944712,0.590101881,0.184698072,1.030307504,5.013970733,5.346973086,2.315628268,-0.897977512,0.094102562,0.146485382,18.49687874,15.50938902,-0.437658788,0.86820632,0.001459642,-0.181723117,-0.197544339,-0.262492303,-0.095973858,-0.121915538,0.194348271,0.088027716,0.125915427,0.140653929,1.987089439,-0.229690164,-2.592872855,0.111749955,#DIV/0!,-0.134917825,0.057392356,-2.987681947,0.429711442,pre
#DIV/0!,0.198206746,2.570167541,0.279490196,0.457386196,5.231659723,5.459530115,1.669959689,-0.89150619,0.085826792,-0.123261899,6.200466065,16.66839695,-1.040522064,3.125590108,0.188570391,0.009332354,0.173034927,0.026156181,-0.06142902,0.275427959,0.182226832,0.087429201,0.200414443,0.153559124,0.544527777,-0.046018621,-7.63658047,-0.551536323,#DIV/0!,0.257835799,-0.137260906,-4.117978455,1.279700783,pre
-6.291493415,-0.255323377,-0.357865559,0.485103874,0.596564116,4.791992831,4.906475877,1.105321991,-0.925089276,0.093069869,0.031470591,19.73629897,15.93687258,-0.445769543,1.551219766,-0.001136157,-0.127532197,0.027615724,-0.100069717,-0.044348304,0.173401,0.210964144,0.102611666,0.118146602,0.140153049,2.22861242,0.865036139,-3.601614378,-0.031242724,#DIV/0!,-0.829261579,0.007158696,-2.630565658,-0.202685069,pre
-7.395129169,0.039793722,-0.689795696,-0.210346157,-0.166133663,4.969217874,5.255602814,0.408570526,-0.906370914,0.091925929,0.18185099,-0.911803705,17.71019278,0.650502817,2.852543794,0.178630979,-0.101274817,-0.027809918,-0.123228666,-0.099346275,0.114843286,0.157237613,0.09006686,0.143408645,0.138293479,1.169892009,0.641624604,-8.231116533,-0.158669711,#DIV/0!,-0.363149119,-0.071542602,-7.381272637,-1.713757952,pre
-1.74128565,1.026070868,0.464518196,0.556666763,0.929378955,5.246997571,5.28177824,1.301690101,-0.831265371,0.089305978,0.268075022,14.79182393,16.32011394,0.406788538,2.553357431,0.241566399,-0.035633889,-0.108799661,-0.120611167,-0.015815059,-0.014947025,0.212672429,0.108256244,0.13040252,0.151579447,1.040514519,0.460096939,-6.230595115,0.614174332,#DIV/0!,0.219398441,0.019260731,-0.100605012,1.056623734,pre
-2.045043539,0.802869217,-0.213567691,0.169065789,1.312834238,5.180420544,5.127908086,0.719751134,-0.556250709,0.097296698,0.033004748,25.1151104,17.15382538,0.121591395,2.656268629,0.221868824,-0.007292449,-0.081445209,-0.216975099,-0.077050566,-0.071932242,0.174514295,0.11315496,0.128533856,0.145252737,1.272307308,-0.029158453,-5.763491033,0.42584526,#DIV/0!,-0.052855776,-0.002074444,-1.614583607,-1.308419034,pre
-7.06053925,-0.464538569,0.425620628,0.016065333,-0.031245262,5.038625028,6.236364078,3.003514741,-0.783919853,0.099361671,0.257999057,10.40053892,16.69880752,0.381988146,3.31704123,0.101905179,-0.137626125,0.142775904,0.057394471,-0.074344071,0.268222813,0.174420598,0.104340526,0.124825139,0.14847786,2.60963892,1.182476728,-4.50040555,-0.088471832,#DIV/0!,0.821790208,-0.209641962,-0.039866388,-1.307357174,pre
-3.2791605,0.914508506,1.361683731,0.677058425,1.660425276,5.434297277,5.01624937,-0.526933244,-0.625348408,0.084306686,-0.134649447,#DIV/0!,17.65652552,-0.292173127,1.405408233,0.160910206,-0.006830952,0.059015858,0.016353685,0.033572542,0.129386679,0.214869385,0.096028558,0.16614334,0.133509435,1.379621097,-0.632890034,-2.064897857,0.412087699,#DIV/0!,0.696743049,0.607932959,-0.979168895,-0.564720931,pre
5.734920025,0.680049031,0.255248241,0.293839691,1.159868625,5.113004664,5.01438875,1.847028482,-0.655795622,0.08887216,0.158573086,27.02711296,16.90672302,-0.117475297,2.499715709,0.082545418,-0.033124401,0.048366923,0.013096561,-0.066463323,0.239344944,0.156268358,0.082916765,0.162667556,0.157534121,0.796040561,0.308773857,1.22249079,0.101799811,#DIV/0!,0.924510668,0.068574292,-2.629856457,-0.569321361,pre
7.46083546,2.345243006,1.115370872,0.599937552,1.946386972,5.003193643,4.818301964,1.485576324,-0.689859592,0.086436059,-0.185276006,27.02711296,16.87838039,-0.196349151,1.753792095,0.072048188,-0.091287769,0.131838816,0.018171802,-0.017388317,0.201417926,0.201804007,0.090162781,0.172518567,0.152712679,1.327154663,0.112078616,-3.853725195,-0.142734911,#DIV/0!,0.110241883,0.201959154,-1.305558603,1.057682796,pre
7.46083546,0.198155461,0.72983344,0.340774219,0.818045975,5.061777403,5.759915018,0.727343843,-0.716056147,0.084025519,0.245824749,18.16446304,17.83266192,-1.56268566,-1.007776964,0.204031448,0.002756422,0.205355808,0.036096117,-0.006377174,0.285722069,0.192638807,0.077564531,0.217911186,0.1787055,2.69369206,0.756892295,-4.82460976,0.3932377,#DIV/0!,-0.559376928,-0.117380196,-3.193550778,0.043826542,pre
-3.2791605,1.152416592,0.388730452,0.299335065,0.910029638,5.176187898,5.567433357,0.961214237,-0.671306718,0.077786585,0.248678914,6.70271772,16.63430567,0.354514866,-1.47252285,0.224449601,-0.055945741,0.18634039,0.085486915,-0.067881584,0.231102071,0.212681519,0.108922421,0.163547724,0.137699932,1.630940493,-0.429812931,#DIV/0!,0.362371842,#DIV/0!,0.09266678,0.033858513,2.74987632,1.18305592,pre
-7.06053925,1.026122153,0.652595985,0.082592702,0.171023029,5.479782345,5.743890619,1.001397253,-0.617415019,0.097943963,0.102127781,10.61587584,15.9858367,0.320548507,1.883271205,0.242207112,0.038331935,0.244860656,0.069979344,-0.111257118,0.35739385,0.115082971,0.086591398,0.183992099,0.162141123,1.47698222,-0.548692425,-2.5925746,0.527779299,#DIV/0!,0.488162814,0.298548638,-1.95833802,0.592566667,pre
-3.2791605,0.802920502,-1.037900406,0.426921451,0.405199923,5.276730969,6.522019195,1.512022324,-0.616028977,0.094313155,0.261420915,6.662484685,15.99343538,-0.209556432,2.402789602,0.152681289,-0.064652268,0.089890663,-0.067709614,-0.06675367,0.16937556,0.214263646,0.109214297,0.155435191,0.180240854,1.802101209,1.18325362,-6.4082365,-0.040040162,#DIV/0!,0.782775938,0.294182642,1.002411364,1.603270786,pre
8.603006365,1.32837408,0.654348244,0.499860994,0.869800784,5.274050477,5.256746387,1.032283499,-0.621743808,0.115759583,0.241751769,4.127352428,17.29954309,0.632670339,2.075365864,0.37235895,0.009194247,-0.006178367,-0.058599161,-0.041838754,0.115473477,0.238337192,0.100030001,0.13660813,0.164542429,1.419877376,0.839968746,-0.685041905,0.043345415,#DIV/0!,0.497014503,0.333074029,1.564592467,-0.566915751,pre
4.620644188,2.822133138,-0.135106136,0.865772703,2.035266722,5.123033096,4.656946992,3.347150411,-0.632129902,0.114132606,-0.154624189,7.346963337,18.13995648,-1.268945871,1.208254792,0.112780855,0.086436251,0.210561907,0.201520607,-0.01784694,0.277390833,0.195916065,0.095663316,0.154170246,0.144287114,1.341486122,-0.492466874,-4.82460976,0.069978913,#DIV/0!,0.930076022,-0.188412959,1.590887903,1.080538211,pre
-4.995795251,1.32837408,-0.19424947,0.734956019,1.419997292,5.341089894,5.355425453,1.099288266,-0.65505635,0.100662878,-0.018820559,18.49589729,16.06563025,-1.340744796,1.489413325,-0.001671313,-0.076407417,0.075145026,0.05314978,-0.06017448,0.187778115,0.171747893,0.075065044,0.149234728,0.148501917,2.390947373,0.006252412,-2.19696617,0.183144393,#DIV/0!,0.24711522,0.683429713,-1.292430608,-0.383131396,pre
-7.782214164,1.724306451,-1.25639072,0.385445531,0.500652641,5.138587644,6.006714774,1.614209229,-0.659986235,0.112052913,-0.165966942,#DIV/0!,19.07630672,0.201508617,2.718074082,0.332471574,-0.002673898,0.183074214,0.074552133,-0.035524057,0.258279506,0.192961778,0.081398156,0.150510288,0.133460777,0.279080649,0.027195273,1.22249079,-0.067718821,#DIV/0!,-0.437721618,0.527924768,0.676832735,1.226596662,pre
-11.62396738,1.565893427,-1.174847185,0.654303028,1.271741416,6.588617324,6.401890039,1.055439937,0.521589841,0.099423067,0.285877183,#DIV/0!,21.46822891,0.496127965,#DIV/0!,0.31790047,-0.026432066,0.016623495,-0.03174962,-0.137246374,0.165365478,0.14640859,0.060084884,0.107256801,0.142471396,1.457469448,0.53870349,-4.812344358,-0.060754371,#DIV/0!,0.212587518,0.121463359,-4.042865184,-0.174028967,pre
-10.11828745,0.262995373,-0.25242741,-0.264100438,0.067552148,6.659512709,6.972367383,2.157316283,0.889810399,0.077088895,0.145038006,#DIV/0!,22.28638363,-0.309589118,#DIV/0!,0.134595815,-0.081315698,-0.003321222,-0.1511483,-0.119005601,0.079434654,0.201300285,0.093936814,0.163020592,0.181958513,1.985629065,0.749345536,-3.864660737,0.526716964,#DIV/0!,0.472981433,0.162399567,0.124832177,-0.720911674,pre
-8.125026914,1.184432607,-0.743697117,0.218067824,0.642503332,6.246068908,6.647298624,1.702470138,0.043790081,0.073642478,0.020239755,#DIV/0!,22.2059391,0.73320123,#DIV/0!,0.231529106,-0.136394041,0.009860804,-0.154185474,-0.109584953,0.076094509,0.164298473,0.084305001,0.155096461,0.16355522,1.80342141,1.045248867,-3.210611726,-0.354700788,#DIV/0!,-0.006376563,-0.205611976,-1.846352303,0.031154879,pre
-9.08390538,1.342794346,-0.263116609,0.462753145,0.437528,5.714412977,5.493242121,0.209155857,-0.140934052,0.062691759,-0.071517283,#DIV/0!,21.98096352,-0.692359066,#DIV/0!,0.000465216,-0.152615203,0.142356395,0.007746292,-0.033826219,0.306093358,0.186274163,0.075147187,0.148622731,0.138958496,2.220810295,0.162867609,-2.89980972,0.241004266,#DIV/0!,-0.279692494,0.211164204,-8.185179475,1.39910649,pre
-6.921723207,0.738029305,-0.938795489,0.361912394,0.405725075,5.725571062,5.336939623,2.092316829,-0.11611289,0.071735869,0.037692538,#DIV/0!,19.02618446,-0.929171026,4.29068927,0.083570485,-0.033994666,0.032123872,-0.122831262,-0.158705168,0.088477918,0.108581426,0.076790275,0.17801456,0.164796796,2.483076199,0.580448676,-4.104498865,-0.20582587,#DIV/0!,0.817658558,0.121738053,-3.426352328,0.212179913,pre
-10.08991385,1.026070868,-0.46443615,-0.12617361,0.619431875,5.936635591,5.888877822,-0.294247149,-0.156935446,0.097145206,-0.110296027,#DIV/0!,17.62585621,-2.713591788,2.73424938,0.074278205,0.018342885,0.258368206,0.084944067,0.017934578,0.290202061,0.24163588,0.134522619,0.187080063,0.17623321,1.320445879,-0.211069805,#DIV/0!,0.108351906,#DIV/0!,0.182352687,0.076993394,0.100651323,-1.022940165,pre
#DIV/0!,1.126401048,0.131839848,0.254802182,0.401283732,4.839976194,5.192521478,2.213995906,-0.552063765,0.132631231,0.426010717,13.69120054,16.14859533,-0.359854625,2.312153793,0.295311076,0.135370569,0.35342295,0.257394228,0.128971063,0.441317867,0.335667259,0.206129772,0.173306384,0.184229408,2.655227014,-0.393183383,-6.4082365,0.084142503,#DIV/0!,-0.076684975,0.238019585,-0.80597524,1.250899749,pre
-4.785326958,0.51994605,-1.453232801,0.417621035,0.507127601,4.291854953,4.46044986,2.533365454,-1.21804712,0.17136284,0.073705459,0.099785897,19.09828224,-1.11107525,-2.114826937,-0.077565532,0.021696324,0.205089515,0.209801574,0.129797059,0.375791843,0.321643034,0.248549162,0.244970545,0.225725774,1.215809747,-0.261591378,-1.801059485,-0.219979123,#DIV/0!,-0.847815904,-0.150823466,-3.193550732,-0.509394929,pre
2.09083748,-0.306228115,-0.351119782,-0.342810334,-0.80212358,5.130307891,5.128835486,2.301388012,-0.586837241,0.158839959,0.365327022,0.287787641,18.48242931,0.421494759,-3.355879046,0.16552838,0.20061968,-0.177220664,0.044129826,0.138098615,0.075583087,0.369416529,0.295760809,0.167332377,0.194272843,1.563289096,-0.16808993,-2.064897857,-0.091093191,#DIV/0!,-0.067034373,-0.203016381,-2.732605602,-0.507917535,pre
-5.169849875,-0.946483424,-0.48380094,-0.271150373,-0.63832414,5.190834334,5.251280784,1.989561307,-0.306781419,0.162778904,0.288299941,3.233501652,19.10800419,-0.854230412,-6.548790185,-0.280652857,-0.040367315,-0.099475537,0.100051223,0.085688114,-0.016727409,0.233995232,0.24445591,0.126982703,0.189066749,0.372478142,0.305053872,-4.940030935,-0.894660441,#DIV/0!,-0.113177419,-0.13028427,-2.27717135,-0.842991089,pre
-5.287382443,-1.091793616,-0.251979519,-0.045388004,0.168527543,5.619997121,5.238272095,0.741415582,0.02276237,0.152661778,0.136599301,8.627684353,16.98980694,0.212282353,1.6474985,0.00936371,0.083826693,0.016920194,0.076310382,-0.049654531,0.195757083,0.170988085,0.188786194,0.114204345,0.155335881,0.307643876,0.140199055,-7.15482807,-0.53152689,#DIV/0!,-0.580756961,-0.801660041,-1.615022423,-1.453603082,pre
-4.791712,-0.399749942,-0.30531896,-0.269319101,-0.020843693,6.253315785,6.561882975,0.090169908,0.353853338,0.143128261,-0.460496125,12.93850319,16.08016338,-1.214244862,0.109394265,-0.216789514,-0.11124122,0.07402955,0.11638269,-0.075843477,0.149885236,0.171967286,0.154843465,0.067330023,0.131804651,0.427224257,-0.127990997,-3.70869136,-0.761688724,#DIV/0!,-0.408489892,-0.231505899,-4.456134203,-1.419853078,pre
-9.136048318,-0.564971319,1.100732604,-1.103847277,-1.553890746,6.318223525,6.680002118,0.822275164,0.627814615,0.163215312,-0.239027833,11.45502901,16.31481714,-0.625357371,2.414975441,-0.004458772,0.016679016,0.155208047,0.136211651,0.002399275,0.20887573,0.231335968,0.164042238,0.114082524,0.129747037,1.112197073,-0.280970816,-3.931795696,0.225417273,#DIV/0!,-0.145495263,-0.422611679,-1.95833802,-2.301768303,pre
-9.659859817,-0.471398207,-0.830327781,-0.209641374,-0.481787998,5.848797844,5.776430549,2.118283564,1.011631644,0.159493313,0.016200528,#DIV/0!,21.34104233,0.103350551,-10.43928146,-0.002630835,-0.072284743,-0.221459443,-0.161234095,-0.109105209,-0.104515778,0.17291532,0.135186928,0.140433381,0.175890058,2.23589126,0.807683682,-6.230595115,0.127393786,#DIV/0!,0.142542618,0.01349822,-7.549325947,-0.716396483,pre
-7.146468376,-0.047484911,-1.237843683,-0.079975455,-0.071982124,7.430012179,5.811033535,0.255795241,1.632917859,0.149445682,-0.377659965,#DIV/0!,22.54146976,-0.430730356,#DIV/0!,0.150604494,0.106399673,-0.05585764,0.003760762,-0.059246349,0.08739952,0.255964246,0.131846689,0.121667528,0.158721669,1.673747208,-0.428609865,-5.745558358,0.106882625,#DIV/0!,-0.146166342,-0.335836226,-4.549906542,0.936386925,pre
-6.693860532,-0.622951593,-0.525375549,-0.61833168,-0.413513622,6.883486939,6.263199903,-0.060940847,1.499120092,0.151715206,-0.022122949,#DIV/0!,22.66750278,-0.821277178,#DIV/0!,-0.175580913,-0.053238668,-0.177291521,0.08028089,-0.06617026,-0.005727467,0.225238096,0.135654202,0.111425936,0.135746044,0.716282381,-0.999713448,-5.354955513,-0.26330928,#DIV/0!,-0.565004466,-0.68092543,-1.190096167,-0.915979831,pre
-9.16960392,-0.327915611,-1.086671051,-0.381339501,-0.399514634,6.391939019,7.180138101,-0.177408919,1.248126078,0.15385628,-0.622830571,#DIV/0!,22.56311493,-0.298359436,#DIV/0!,0.279879869,0.150865554,0.158799758,0.147557681,-0.06904809,0.308516025,0.210812422,0.129540564,0.135354763,0.130185958,1.198371114,-1.090693052,-4.611252307,0.052280448,#DIV/0!,1.13147024,-0.78244026,-6.27761889,0.134732563,pre
-9.239185574,-1.033813342,-0.422355199,-0.512477659,-0.994432941,6.677545405,7.071385002,0.63003651,1.484792864,0.163719147,0.213270501,#DIV/0!,22.41622524,0.342865466,#DIV/0!,0.138703394,0.028346577,0.14042555,0.126293675,-0.085459501,0.351751471,0.264563602,0.154495566,0.138395552,0.174926931,2.047895368,0.337750571,-8.260117053,0.082757002,#DIV/0!,-0.012114731,-0.363137148,-0.172763566,-1.117521381,pre
-8.453468325,-0.687791505,-1.353949457,-0.476947361,-0.378830791,6.52308712,7.46273327,0.839705973,1.510673203,0.171247817,0.353500318,#DIV/0!,21.86474457,-0.613236992,#DIV/0!,0.028174241,-0.059269196,-0.027758672,-0.083366631,-0.115067824,0.070696697,0.269568986,0.154367154,0.123870632,0.148769085,1.61585005,0.168210052,-3.65713806,-0.643452168,#DIV/0!,-0.359098541,-0.577322078,-3.49562979,-1.823091878,pre
-8.27910576,1.184381322,-1.253755969,0.027011935,0.092115318,6.872861101,5.649056148,0.441439554,1.272819064,0.170492853,-0.028886797,#DIV/0!,20.99358807,0.153804486,#DIV/0!,-0.011286764,-0.062348642,-0.113549651,-0.03047271,-0.060307648,0.070709542,0.272951154,0.145435653,0.145094337,0.17319367,1.000418761,-0.65434127,-7.28748727,0.221303494,#DIV/0!,-0.150100335,0.126561552,-3.650904794,-0.553755079,pre
-8.563209217,-0.58741004,-1.49082567,-0.377519781,-1.494641131,5.866567278,5.663389779,0.414432579,0.424377249,0.194726002,0.122509341,#DIV/0!,19.03946686,-0.449730002,3.959898854,0.260200929,0.090584871,0.197947266,0.202831577,-0.043633879,0.391282722,0.271812458,0.129208396,0.183948449,0.181345037,1.48041949,0.148625386,-3.002221427,-0.110919505,#DIV/0!,0.276694211,0.372712937,-0.853128913,1.459230585,pre
-10.29387268,0.521636007,-1.13076346,-0.257611247,-0.28645215,5.926327133,6.015076924,0.51263677,0.712442362,0.185279646,-0.153609833,#DIV/0!,20.68914433,0.493914276,8.17654419,0.202293386,0.030060996,-0.362322271,-0.196780361,0.003030413,-0.174300008,0.318682896,0.146836453,0.186377202,0.174910943,1.1774682,-0.973640039,-11.98239994,-0.172929812,#DIV/0!,-0.047794931,0.169144167,-1.784684423,1.667631288,pre
-10.0158933,-0.522570128,-0.417814466,-0.438507769,-0.782545711,6.138859224,5.540488614,-0.351475801,0.77651119,0.198556535,-0.033485847,#DIV/0!,21.69241581,-0.065516345,-10.43928146,0.136723122,0.061905091,-0.176957367,-0.017012374,-0.008517038,0.04344886,0.253028906,0.123741848,0.171789621,0.173757082,1.673020943,-0.884488442,-5.365599513,0.087181837,#DIV/0!,0.576157174,0.076571274,-1.857385438,1.096013777,pre
-7.957854082,0.579718851,0.127124568,-0.238331542,-0.37253052,7.137746142,8.084643031,0.952180386,0.867336953,0.173115268,-0.355267292,#DIV/0!,20.86420384,-0.792501319,-10.43928146,0.146736365,0.092790225,0.089752644,0.210321741,-0.044934027,0.26332748,0.251026957,0.11197459,0.158613385,0.145400509,0.872361495,-0.179856379,-7.033754033,-0.344203196,#DIV/0!,0.942248244,-0.268372431,-0.979168895,0.000451184,pre
-5.922933104,0.579667566,-0.787734926,-0.418758435,-0.307380147,6.988099668,7.186553909,0.813122528,0.908098949,0.180544046,-0.147481812,#DIV/0!,21.4277298,-0.713582592,#DIV/0!,-0.212723202,-0.173387807,-0.115160238,-0.092475554,-0.168028706,0.020058711,0.15253087,0.0965987,0.135089001,0.141379089,0.271441855,-0.703670284,-0.303535366,-0.360928212,#DIV/0!,-0.024594856,0.083655976,-1.95833802,-0.966472722,pre
-8.253029689,-0.399749942,-0.474142897,-0.645919804,-1.693981888,6.031014012,5.073039234,0.901419783,0.769746143,0.16952271,-0.279426675,#DIV/0!,21.21314278,0.729353536,#DIV/0!,0.204951925,-0.026913114,-0.062555655,-0.076803703,-0.221359251,0.032409068,0.141275693,0.092750083,0.125384978,0.14762521,1.471712918,0.08641637,-8.862855915,0.018870255,#DIV/0!,0.655294001,0.050189936,-2.361249082,-0.548052846,pre
-7.201578332,-0.48697729,0.243832718,-0.588357005,-1.357434165,6.12436552,5.973149349,0.385886323,0.633577509,0.156773619,-0.214538629,#DIV/0!,20.4539238,-0.77369305,#DIV/0!,-0.243257868,-0.249443493,-0.056430368,-0.066232471,-0.225585996,0.149018063,0.060240471,0.073431614,0.139314833,0.141635433,1.833131196,-0.447370236,-7.898773193,0.138733655,#DIV/0!,-0.077365253,-1.099536871,-6.151578965,-1.743691244,pre
-3.2791605,-0.01549125,1.018306196,0.086857944,0.692577595,5.822220755,5.927583886,-1.38585084,0.973370117,0.137931779,-0.386681899,#DIV/0!,21.88940945,-1.339130867,#DIV/0!,0.048095546,-0.0231924,-0.170438189,-0.111117762,-0.226056008,0.017574149,0.127304866,0.069013091,0.089064615,0.118611938,1.01947433,-1.004316306,-2.5925746,-0.000995577,#DIV/0!,-0.075304243,-0.321095247,-3.541797065,-0.14648935,pre
-3.2791605,-0.881694797,-0.268590845,-0.454132526,-0.97781201,6.399185942,6.995227291,1.035779809,1.117831987,0.146566049,-0.199788065,#DIV/0!,22.01012421,0.413120685,#DIV/0!,0.050805187,-0.109217516,-0.137458103,-0.044926633,-0.217690189,0.088255532,0.094405753,0.057772966,0.110307311,0.138572429,0.57109321,-0.33433804,-10.31123591,-0.106829388,#DIV/0!,0.110722601,-0.383784765,-1.477081778,0.412079419,pre
-6.291493415,0.291677288,-0.682989805,0.087381938,-0.358967802,6.952365923,5.868618012,0.877882469,1.113828028,0.160506126,-0.097248097,#DIV/0!,22.02423935,-0.157286455,#DIV/0!,-0.089266485,-0.125953577,0.002184742,-0.00069432,-0.169367539,0.192883031,0.086477985,0.060068736,0.087771735,0.108083245,0.022640004,-0.94702363,-7.63658047,-0.668399006,#DIV/0!,-0.141261369,-0.440830538,-6.27761889,-1.925449904,pre
-7.06053925,0.802920502,-0.226905526,0.029942513,0.414581217,6.760807896,7.02784052,2.178626191,1.348133378,0.167045845,-0.142667157,#DIV/0!,22.35281429,-0.439372415,#DIV/0!,-0.137237909,-0.105203693,-0.026933355,-0.027598639,-0.217775138,0.113477561,0.066921103,0.056420221,0.072627857,0.107336262,0.129397031,-0.029625488,-0.685041905,-0.169998619,#DIV/0!,0.283423525,-0.050440451,-0.979168895,-0.016256378,pre
-5.287382443,-1.573687186,-0.852701457,-0.539732632,-0.782327219,6.41647148,6.349313309,0.55780583,1.374001033,0.14523057,0.151252932,#DIV/0!,21.6109396,-0.100162933,#DIV/0!,-0.146948318,-0.143816317,-0.116404755,-0.093237061,-0.199768842,0.060694991,0.1027628,0.082439017,0.057938479,0.115320269,2.014769561,-1.043951309,-4.662457708,-0.040138026,#DIV/0!,0.755200781,-0.158161844,-1.424902758,-1.024092511,pre
-6.441670578,-0.710230226,-1.660045327,-0.076273204,0.156120429,6.584836532,6.966901733,-0.659912621,1.577144001,0.141734117,-0.299822026,#DIV/0!,21.5663826,-0.294750304,#DIV/0!,-0.009344313,-0.10108849,-0.331991796,-0.201767469,-0.227000736,-0.157355938,0.08709045,0.095479623,-0.004883346,0.105511028,1.305958887,-1.042056185,-4.450827917,-0.521582431,#DIV/0!,-1.07703286,-1.084078951,-3.95929464,-2.007223721,pre
-0.95962143,-0.183407929,-1.262718575,0.108446651,0.194526109,7.078905868,6.093645526,0.333129222,1.919200444,0.145498228,0.010481807,#DIV/0!,20.75535965,-1.141379195,-10.43928146,-0.107324538,-0.126654584,-0.207672175,-0.182155094,-0.18256733,-0.063981681,0.146354166,0.117243839,0.079403006,0.149990838,1.468746724,0.610427992,-2.754825833,0.144465921,#DIV/0!,0.261557308,0.176291638,-0.973338748,1.505524246,pre
-3.2791605,-0.024994905,-1.13925107,-0.783299176,-0.988368239,6.96954112,6.272019863,1.179430368,1.908984949,0.161212616,-0.358411383,#DIV/0!,18.98480721,-2.04676168,-5.117036937,-0.04049478,1.924010259,-0.049808785,0.020743597,-0.110579225,0.150585437,0.181941491,0.115632114,0.110875753,0.161993985,1.581481758,-0.91852977,-1.066667746,-0.187731766,#DIV/0!,-0.687759381,-0.734686459,-5.06292081,-0.192219681,pre
-3.2791605,-1.767590478,-1.275819666,-0.818775094,-1.787331565,7.041806126,6.51791754,0.223144467,1.934707855,0.152096962,-0.345338709,#DIV/0!,20.72197342,-0.491331368,-8.13363838,-0.001623149,1.856718806,-0.161081859,-0.072718438,-0.057998101,0.011584288,0.199379068,0.1187365,0.050877417,0.137151752,0.79855813,-0.749798978,-6.014264703,-0.522637294,#DIV/0!,-1.126866751,-0.915535986,-6.176786904,-3.730432659,pre
-4.808662416,0.421305827,-1.054588378,-0.096403573,-0.373081186,6.942823269,7.843648169,1.967646181,2.244873703,0.175893552,-0.08856196,#DIV/0!,21.33292713,-0.023303982,#DIV/0!,0.117063483,0.05781374,0.177000969,0.109568063,-0.0982782,0.321551982,0.206869888,0.135637021,0.091755544,0.153260935,0.787507618,-1.030059382,-7.849934698,-0.345079214,#DIV/0!,-0.090738649,-0.498377791,-2.801883128,-1.850267339,pre
-2.842668474,-0.083026464,-0.218935683,-0.640950065,0.548433048,6.948730706,3.90948921,0.296996847,2.165713226,0.189887585,-0.531643523,#DIV/0!,18.66251202,-0.252469499,#DIV/0!,0.171339427,0.183433655,-0.078435105,-0.034702903,-0.049230542,0.083847511,0.268836311,0.157037493,0.18039656,0.172609095,1.662074497,-0.57492565,-3.803781224,-0.767254006,#DIV/0!,-0.600269544,-0.702806449,-1.95833802,0.839530497,pre
-7.5221059,-0.295304896,-0.322526567,-0.654525962,-0.69161301,7.214031983,5.570770265,0.88783753,1.667494531,0.192264436,-0.35600722,0.97374621,20.5295929,0.240021901,-5.531136185,0.177013471,0.056106918,0.052778733,0.02150166,0.007405952,0.218006843,0.274746488,0.133468641,0.2500225,0.210912117,1.604198641,-0.777350037,-2.5925746,0.276495884,#DIV/0!,0.338242169,-0.056916031,-2.548573675,-0.526021342,pre
-2.730454447,0.304611914,-0.231684082,-0.171545138,-0.320734853,6.242330075,6.097138169,-0.246047974,0.589321159,0.183167946,-0.450729879,2.060647669,18.4765337,-0.850138248,-4.580796666,0.058302098,0.010250226,0.278838752,0.200591114,-0.042794163,0.417209582,0.244160917,0.099469999,0.191631281,0.156996437,1.391991713,-0.759780531,#DIV/0!,-0.019407775,#DIV/0!,0.867090345,-0.12169066,-2.577265583,0.718417719,pre
-5.158751988,0.802920502,0.465914439,0.357696773,0.737506422,8.100059892,7.598174411,1.597797716,1.546147966,0.164387339,-0.178696533,1.477273107,17.72191181,0.236802116,0.420880807,0.108619103,-0.052396365,0.14561006,0.085652806,-0.116328664,0.291690989,0.179526772,0.093542118,0.232250708,0.183538133,1.041834713,-1.654051399,-3.746233147,-0.023662595,#DIV/0!,0.12649601,0.198339852,-5.341323803,-0.89898208,pre
-8.315795124,2.235549665,-1.812570323,0.476996097,0.655371945,8.000733949,6.041526699,0.020543247,2.040019252,0.15433015,-0.36513512,-0.620895419,17.29148741,-1.364466496,2.434739591,0.020361167,-0.038001742,0.099113684,0.108876353,-0.078712053,0.238924486,0.247611551,0.091366605,0.212626429,0.163258437,0.863691928,-0.47818362,-1.638808253,0.100058754,#DIV/0!,-0.481353611,-0.172692633,-2.965615675,-0.438966249,pre
-2.578197923,0.579718851,-0.205912401,0.193789712,0.073304999,6.713274146,5.742291689,1.73879035,2.614169597,0.160296121,-0.152371847,5.837109903,16.03244285,-0.63960596,1.871372047,0.182221956,0.007229077,0.060862166,0.060768204,-0.167071738,0.184476281,0.135066104,0.061993656,0.249392198,0.187447981,1.191525676,-0.682641943,-2.065030097,0.182294241,#DIV/0!,1.166007823,0.379353215,4.3192811,-0.397545901,pre
-1.181846173,0.480569402,0.169927394,0.571515507,0.803477411,8.310358336,1.560172846,1.713330661,2.702706433,0.173415436,-0.024258088,0.643675725,18.14859924,0.001914485,4.53661516,0.053662555,-0.177019918,-0.026447215,-0.064184555,-0.193238998,0.105792634,0.127716264,0.055997065,0.197848627,0.175108603,1.055629625,-1.297319371,-2.72245493,-0.585517872,#DIV/0!,-0.534793205,-0.43844904,-0.484725953,0.499501846,pre
-6.115194563,1.026070868,-0.151733562,0.271759218,0.106691117,6.431683589,5.117705557,0.518402693,2.333008312,0.158768355,0.262449424,2.501638959,17.18181896,0.418406867,2.839551062,0.211549037,-0.040623088,0.121710214,-0.032429836,-0.167727738,0.239409218,0.173303067,0.065128091,0.203722444,0.183823997,1.047359981,-0.361845181,-7.16121769,-0.355664663,#DIV/0!,0.201155609,-0.286036315,0.676832713,-0.965282812,pre
-7.483613017,-1.011323336,-1.096043086,-0.284716048,-0.678857291,8.930515173,4.209123747,0.387950408,3.586848355,0.150196173,-0.131998173,-2.866830587,19.33645496,-0.746248197,2.251924544,-0.167110636,-0.171612971,-0.093145956,-0.211564325,-0.050066362,0.032274641,0.274102406,0.112887072,0.178859939,0.160423308,1.325971147,-0.985734072,-4.877045273,-0.784085533,#DIV/0!,-0.809388765,-0.67351775,-5.413762716,-0.471097016,pre
-7.06053925,1.32837408,-1.045855976,0.303632319,1.286695265,4.660325686,8.136187495,0.071697915,3.229518246,0.126942246,0.060520809,14.71625008,18.30292368,-0.860411268,-1.298534512,0.23345412,0.083764712,0.225805221,0.083282686,-0.034357551,0.303960622,0.212393118,0.128439605,0.179674309,0.120183208,-0.026682107,-1.264388367,-1.801059485,-0.251799047,#DIV/0!,-0.354867518,-0.356849596,-4.8378586,-1.301087127,pre
-10.87600136,0.579718851,0.142169154,0.483451981,1.19171958,8.42390347,-6.24124908,1.521294128,6.527856889,0.080466651,0.083952482,#DIV/0!,20.88936005,1.007270364,-1.131368635,0.1338915,0.211319548,0.212881716,0.0855768,0.016301483,0.01136199,0.206693978,0.15246878,-0.013857409,0.034345037,0.863395228,-1.911642537,-2.065030097,0.097142944,#DIV/0!,0.91698367,0.491459035,4.3192811,1.740967412,pre
-5.169849875,-0.968922145,-1.237301934,-0.17020636,-0.307425335,5.150977772,5.663061824,0.973523283,3.807027626,0.120609033,-0.015588728,#DIV/0!,19.91747265,-0.491880398,3.71197899,0.016370339,0.1164181,-0.214083242,-0.128067438,-0.084960384,-0.219097644,0.154203132,0.148663273,0.005929162,0.12133951,2.11273252,-0.354243088,-2.5925746,-0.118923305,#DIV/0!,-0.614791285,-0.399187976,-3.014686567,-1.514168284,pre
-7.650235748,-1.104845163,-1.76713906,-0.051410458,-0.724852635,7.361812259,6.741498113,-1.000462757,2.984665443,0.143873391,0.039120869,#DIV/0!,17.18624029,-1.299037046,3.022897481,-0.221177394,0.019420549,0.007307986,-0.108374811,-0.001936959,0.005879295,0.148881305,0.150774153,-0.047022849,0.088325796,0.96700789,-0.734614856,-2.5925746,-0.357530514,#DIV/0!,-1.152564051,-0.703906025,-5.516533071,-3.039434653,pre
1.467873453,-0.723315944,0.599239223,-0.010822378,0.065899675,7.48837576,7.232277234,1.680173888,2.638570715,0.215284873,0.095224632,#DIV/0!,17.5213417,1.297161283,2.450217854,0.319107696,2.206593817,0.041685203,0.112427301,0.139758214,0.055594553,0.263479485,0.231260291,0.076406072,0.176494888,1.623851581,-0.185992335,-2.5925746,-0.132195292,#DIV/0!,0.6104086,-0.040077512,-0.708911778,-0.771943249,pre
#DIV/0!,1.824320766,-0.217416943,0.643052499,1.612993742,7.876466323,6.493904697,2.561160168,2.253617811,0.252467275,-0.116009935,15.9536134,16.79092007,-0.302303857,-0.467419956,0.260896467,0.354086077,0.234658265,0.355049941,0.305609729,0.273848543,0.331876358,0.276963365,0.137859794,0.217941462,0.544428248,-0.421634589,#DIV/0!,-0.236358068,#DIV/0!,-0.091171292,0.364744247,-5.341323697,-1.781481017,pre
-7.07758093,0.961230956,-0.249964542,0.381223542,0.460554697,7.574204206,6.351376581,1.216285575,1.797683156,0.2725091,-0.148777958,21.71706962,16.19932012,0.389646387,2.069413812,0.163596619,0.292427319,0.212741201,0.287590954,0.317110873,0.219656315,0.348238827,0.276372942,0.114689828,0.226793905,0.937198617,0.07979261,1.22249079,-0.156603342,#DIV/0!,-0.345555887,0.063865478,-2.430526544,-1.547911298,pre
#DIV/0!,1.184381322,0.025661944,0.160959702,0.910077714,6.914789392,8.063967037,1.398583736,1.926101958,0.279247614,-0.368146252,2.72205214,18.3132513,0.687470651,-3.841559738,0.258353549,0.325771086,0.118688039,0.334687105,0.296133752,0.157551068,0.345007719,0.274281208,0.181542786,0.236457611,2.124409689,-0.75898351,#DIV/0!,0.232556121,#DIV/0!,0.172224971,0.194340891,-0.53731672,1.245084847,pre
-5.169849875,1.284762787,0.252273426,0.381835705,0.576561565,7.340571929,5.728322507,-0.118948752,1.894859767,0.265446461,0.16190233,4.360296149,17.822929,0.189005924,-1.226028848,0.067040243,0.267569124,-0.106886234,0.130868998,0.227203871,-0.017479171,0.232942114,0.262057402,0.169471247,0.255028979,1.782204766,-1.093036002,1.22249079,0.045686268,#DIV/0!,0.626407244,0.054892545,-1.759755453,0.656098275,pre
-5.354509142,-0.119404391,-0.455986428,0.535736301,1.116492476,7.340571976,5.709684372,1.93476122,2.144813345,0.283524703,0.207021272,#DIV/0!,20.30253372,0.099801228,-9.670733767,0.431621047,0.421939713,-0.156055085,0.047033445,0.119857865,-0.016728454,0.203972858,0.257253489,0.200508591,0.287417292,1.516781296,-0.238673551,#DIV/0!,-0.219097843,#DIV/0!,-0.683711741,-0.094888622,-4.8378586,0.140917902,pre
-8.350529261,-0.02504619,-0.331081355,0.116760545,-0.017873035,6.588105154,5.486988402,1.698264559,2.208991338,0.275246229,-0.284242793,#DIV/0!,21.88616085,0.684248551,#DIV/0!,0.131465441,0.154853359,-0.180777275,-0.047545828,0.20779825,-0.026930185,0.322200373,0.282276803,0.134302199,0.263881634,1.15467377,0.034891269,#DIV/0!,-0.212544476,#DIV/0!,0.95397877,-0.459904896,-1.074170734,-1.379045151,pre
-1.143334734,-0.439431557,0.347143633,0.319211733,0.34767432,7.430012179,7.662383079,3.383396225,2.178736925,0.299120966,-0.322162868,#DIV/0!,21.09972916,-0.225805611,-10.43928146,-0.120533891,0.087955142,-0.314187372,-0.114212549,0.209016606,-0.141254194,0.345343654,0.278028997,0.158973073,0.269271961,1.293451526,-0.400211866,1.22249079,-0.309984851,#DIV/0!,0.831417233,0.032326632,-2.71353571,0.23172012,pre
#DIV/0!,0.298588211,0.486018044,0.239542447,0.61399798,6.540576744,9.571334308,1.862164981,2.325266362,0.287900171,0.257398617,#DIV/0!,22.76437549,-0.046854841,#DIV/0!,0.066856007,0.14368225,-0.040695818,0.023725191,0.270244907,0.034305144,0.344581107,0.274037867,0.178222472,0.281470229,1.673610547,-0.473358095,#DIV/0!,-0.256785459,#DIV/0!,-0.410426792,-0.20988852,-2.548573675,-1.175319784,pre
#DIV/0!,0.104633634,-0.409391328,0.190638284,0.605830104,7.681273081,5.562336923,0.735889664,2.187830089,0.286759306,0.103691596,#DIV/0!,22.06298542,-0.11739886,#DIV/0!,0.095742366,0.153570961,-0.098290535,-0.012384557,0.217842692,0.002683563,0.380649774,0.299141424,0.173702084,0.274531217,2.287037499,-0.71022493,#DIV/0!,-0.094931626,#DIV/0!,-0.118266468,-0.20843943,0.208858847,-0.726355042,pre
-3.2791605,1.184432607,-0.218356339,0.26991966,0.737537384,6.881888342,2.68310102,3.500375563,2.493476391,0.287252489,-0.141242945,#DIV/0!,22.17168884,0.290278062,-10.43928146,0.111730855,0.144832699,0.019204941,0.047479426,0.147901522,0.102406976,0.297970324,0.28671014,0.185510698,0.311944598,2.402418031,-0.054920077,1.22249079,0.23772838,#DIV/0!,0.252072129,0.209535009,-3.078665138,0.190220203,pre
2.620377223,0.198155461,-0.588808562,0.612198379,0.848388322,7.502735665,7.501270951,1.264407186,2.494570612,0.265545818,0.043673329,#DIV/0!,21.49114075,-0.118162081,#DIV/0!,0.0076263,0.058830231,-0.110584246,-0.035807382,0.147678806,-0.03840037,0.325971131,0.273243926,0.197225232,0.306512599,0.785164026,0.162307273,#DIV/0!,0.007872518,#DIV/0!,-0.449102531,0.055978124,-5.473712128,-0.030099276,pre
-1.762236913,-0.191391754,1.151105142,0.372027852,0.44544871,8.31169939,7.574098377,2.798209548,2.335206308,0.279171751,0.293785346,#DIV/0!,22.15906925,0.408306328,#DIV/0!,0.219106471,0.151314838,0.025810149,-0.03808405,0.208405234,0.101206843,0.363302376,0.287391018,0.226858595,0.343180885,2.542388047,0.271085435,#DIV/0!,-0.329706623,#DIV/0!,-0.276769221,-0.061649382,-5.014138343,-0.192879943,pre
-3.2791605,-0.435291495,-0.585471619,0.08605811,0.189801091,8.693135454,5.773759963,0.813459916,2.507257987,0.276181484,-0.07810506,#DIV/0!,22.57063026,-0.100853559,#DIV/0!,0.086575473,0.140973803,0.133118732,0.188922419,0.174260464,0.296389685,0.403221613,0.291375722,0.247473397,0.322538801,1.695777579,-1.249850806,-2.592773437,0.135391788,#DIV/0!,0.033866131,-0.373220095,-2.422533693,0.66823411,pre
0.300838153,-0.714242274,1.580782272,0.51166203,1.170844967,7.052187873,8.168498374,0.938471139,2.471882344,0.282977687,-0.156668593,#DIV/0!,19.7022913,-0.795769334,#DIV/0!,0.213836255,0.223323154,-0.053653283,0.084072792,0.163610333,0.054907132,0.375240151,0.26779309,0.237159362,0.318627156,2.007106164,0.059114936,1.22249079,0.183795319,#DIV/0!,0.684408161,-0.264564,1.013924628,0.620422308,pre
-2.148375784,0.45684738,1.96412027,-0.024827929,-0.182816801,8.937172938,7.14527607,1.935863935,2.44906714,0.264302956,0.438216514,#DIV/0!,19.41057758,-0.122312134,-9.670733767,0.245411189,0.215911437,0.087929707,0.028230719,0.155175627,0.183775477,0.387587242,0.243324823,0.211917966,0.289136095,0.746388444,-0.983296642,-4.82460976,-0.057999267,#DIV/0!,0.59885821,0.138213231,0.23938713,0.493863897,pre
-3.2791605,1.565944712,0.152103082,0.486969303,0.965436606,7.962863638,7.809770703,2.802366183,2.675853705,0.280293452,0.441627889,#DIV/0!,19.82631912,-0.117209488,-5.056473253,0.237680722,0.186554304,0.15477,0.113540966,0.103073564,0.228853048,0.338343506,0.247793217,0.178629495,0.301282087,2.440566214,-0.362734484,#DIV/0!,0.294995289,#DIV/0!,0.036007478,0.029958818,-3.901563437,-0.160452336,pre
3.381824493,1.789146363,1.583145141,0.532047919,1.944718478,8.062709094,5.236596396,3.037690413,2.65038786,0.270545489,0.154677841,#DIV/0!,20.69871769,-1.047570373,-10.43928146,0.240556674,0.287313329,0.278455972,0.293842192,0.127263991,0.331112443,0.351428485,0.24610575,0.239892091,0.324350289,1.430330451,-1.069558055,#DIV/0!,0.266208524,#DIV/0!,-0.775705093,-0.30891428,-1.972392285,0.673216952,pre
-6.291493415,1.328317097,-0.193006604,0.542505988,1.800670986,7.622909596,6.423056794,1.411826289,2.342530263,0.259051559,0.162677166,#DIV/0!,20.96537724,0.012441493,#DIV/0!,0.261756477,0.144179699,0.246606253,0.199245992,0.070563842,0.352253798,0.31653087,0.217096465,0.223027686,0.339983485,1.447169104,0.659196526,1.22249079,0.136655479,#DIV/0!,0.372807097,0.271509433,-3.193550732,1.816241079,pre
-0.95962143,0.579667566,1.165643367,0.27990814,0.852063193,6.359871962,5.181343462,1.152278483,2.681205247,0.249227979,0.074349187,#DIV/0!,21.66325512,-0.53945104,#DIV/0!,0.13105947,0.020137335,0.276888192,0.25192175,0.11176233,0.320661723,0.347202432,0.200651207,0.230596071,0.294600676,1.622464308,-0.944007871,1.22249079,0.354934254,#DIV/0!,0.828860985,-0.293440891,-2.422533693,-0.76171961,pre
7.46083546,0.802835046,2.326532217,0.152616145,0.040641108,9.718548061,8.415424188,1.158716523,3.198465801,0.22821669,0.064572172,#DIV/0!,21.5829237,-0.956933937,#DIV/0!,0.11493503,-0.001303128,0.155414438,0.118374386,0.130800407,0.223045282,0.393156596,0.193210271,0.266654838,0.290592842,1.888168413,-0.27887344,#DIV/0!,0.486293422,#DIV/0!,0.473406195,0.299203329,-4.117978455,-1.167285596,pre
-3.2791605,0.486197024,-0.40728238,0.419345776,0.70770227,6.212068225,5.742291689,0.030650567,2.998906815,0.199065906,0.30710988,#DIV/0!,20.41447086,0.112650787,-10.43928146,0.274272012,0.029104775,0.043074697,-0.027509755,-0.001187604,0.105888182,0.269493999,0.183855088,0.258955693,0.295747121,1.765149775,0.004407254,-4.0158273,-0.125666576,#DIV/0!,-0.170459351,0.0544282,-0.645758016,-0.623042443,pre
#DIV/0!,-0.749640287,1.42775197,0.594806711,1.565989414,7.196379948,6.290558483,0.725254298,2.598151494,0.223926341,0.015527034,#DIV/0!,21.18398209,-0.589661407,#DIV/0!,0.114911782,0.0541184,0.196048612,0.126688741,0.086512046,0.254313902,0.327921735,0.182948881,0.25528967,0.285960189,1.824556113,0.007250725,1.22249079,0.033590248,#DIV/0!,0.377917005,0.046229365,-1.972392285,-1.929655682,pre
-3.2791605,1.184432607,1.037262058,0.050368863,0.549448923,7.022898533,10.3692894,1.686310506,3.068474175,0.223196058,-0.384601879,#DIV/0!,21.4277298,-0.669814277,#DIV/0!,0.208746333,0.073275695,0.367826404,0.245397208,0.08440004,0.431866007,0.374079264,0.188394738,0.285871235,0.271390044,0.979675284,-0.671082157,-4.82460976,-0.129068378,#DIV/0!,1.332971357,0.229601074,4.3192811,-0.393578255,pre
-7.06053925,-0.318337926,0.46835649,0.448981353,0.975935487,7.170702222,5.804994162,2.199914474,3.051899506,0.247158702,0.115316444,#DIV/0!,22.15027275,-0.666521951,#DIV/0!,0.127931773,0.011774483,0.288342421,0.348193308,0.051301902,0.520265633,0.315796288,0.156100735,0.25810202,0.286955241,1.240740943,-0.232826715,#DIV/0!,0.012037207,#DIV/0!,-0.072121941,0.620133969,-0.53731672,0.489295191,pre
-6.17106642,0.198155461,-0.409114743,0.312788828,0.602710344,6.80328317,6.530618431,1.669908512,3.189567304,0.219698861,0.147909049,#DIV/0!,21.28085461,0.360774427,#DIV/0!,0.22167846,-0.012190928,0.064697469,0.012518758,-0.094249306,0.174884716,0.210931015,0.141413948,0.251064899,0.272190875,2.281969549,-0.033733381,-3.20704484,-0.08063524,#DIV/0!,0.3327644,0.468910427,-3.021044853,0.651058898,pre
-5.27916654,0.05661008,-0.501354874,-0.063100949,0.318783043,7.014977934,3.666721347,0.807112515,2.985766316,0.210899888,0.086308152,#DIV/0!,21.55583286,-0.237535055,#DIV/0!,0.018317893,-0.062711506,0.350680576,0.220884442,0.077599525,0.386630461,0.318084442,0.158437842,0.200131586,0.22682222,1.707454784,-1.379436174,-5.114577535,-0.201806696,#DIV/0!,0.245850243,0.17819105,1.555222987,-0.067078781,pre
1.620050656,1.152473576,2.024407726,0.391302548,1.260600556,8.767217638,4.368905353,2.771876634,2.953086282,0.208770373,-0.099789015,#DIV/0!,22.71437282,0.444835081,-10.43928146,0.139888961,-0.035213179,0.064467825,0.068598481,0.052587963,0.233988888,0.256435948,0.116677277,0.259127415,0.232471035,0.83123497,-0.386376288,#DIV/0!,-0.378511775,#DIV/0!,-0.156746957,-0.106912113,-6.025538925,0.419683892,pre
8.603006365,0.376599278,2.67926005,0.175788136,0.765614702,7.477015782,11.14127493,2.3852027,2.917264486,0.199489071,0.352197732,#DIV/0!,21.99957447,0.873469797,#DIV/0!,0.102997681,-0.096872484,-0.096143672,-0.150501956,-0.093253592,0.030265031,0.21635073,0.123933634,0.182754319,0.221140581,0.608044693,-0.053155837,#DIV/0!,-0.340031788,#DIV/0!,0.319060702,0.552437805,-0.964617593,0.4238679,pre
3.233008385,0.961179671,2.401367799,0.391869799,0.811225363,8.200107625,7.325901629,0.057166234,3.021324348,0.177408082,-0.221499931,#DIV/0!,22.54146976,0.537509362,#DIV/0!,0.294175255,1.941526961,0.008915118,-0.107745776,-0.033259631,0.149419713,0.225062455,0.114665593,0.159937536,0.216469204,1.554189982,-0.267677585,1.22249079,0.186486265,#DIV/0!,0.491753992,0.248606546,-2.745318893,1.017289439,pre
-3.753731728,0.3565172,1.500491577,0.103169259,0.566183677,7.670867875,4.868864802,0.783201993,2.779299641,0.188095302,-0.230496168,#DIV/0!,22.36034431,0.348165532,#DIV/0!,0.122732814,2.0748504,0.028883267,-0.053417491,-0.074660487,0.122416113,0.188438216,0.089729569,0.229613913,0.250293821,0.964053465,0.058897742,#DIV/0!,0.252257603,#DIV/0!,-0.029347868,0.060479924,0.124832192,-0.008287894,pre
-8.575226548,1.789146363,0.840644985,0.464718667,0.701995849,8.152149345,5.961341976,0.635895319,2.786449098,0.185046439,-0.253439921,#DIV/0!,22.53267307,-0.148220897,#DIV/0!,0.1859065,-0.000919819,0.242015456,0.167157943,0.042268749,0.362803578,0.206545266,0.085712498,0.200912572,0.192580262,1.015199705,-0.823810021,#DIV/0!,0.579318654,#DIV/0!,0.774845071,0.505277729,-0.979168895,0.97917603,pre
-2.336094474,-0.147917661,1.020437342,0.278324724,0.290144805,6.80328317,4.640365603,1.739150997,2.983652353,0.172012145,-0.059992067,#DIV/0!,22.01012421,-0.459762315,-10.43928146,0.149065877,-0.115896359,-0.083736483,-0.147395138,-0.085171066,0.113899259,0.157320117,0.060610138,0.177082433,0.201213378,1.387853748,0.266746351,-5.548046903,-0.099384695,#DIV/0!,0.535611273,0.498876579,-3.596461776,-1.021287911,pre
