CH1,CH2,CH3,CH4,CH5,CH6,CH7,CH8,CH9,CH10,CH11,CH12,CH13,CH14,CH15,CH16,CH17,CH18,CH19,CH20,CH21,CH22,CH23,CH24,CH25,CH26,CH27,CH28,CH29,CH30,CH31,CH32,CH33,CH34,
-4.485451063,0.108100411,0.902734522,0.018143247,-0.366411835,-0.081706768,0.081727621,-0.178500311,-0.057412648,-0.217137485,0.070758199,-0.110789455,-0.292806042,-0.000853267,-0.240334054,-0.243293441,-0.149280866,-0.076141778,-0.031046513,0.088896151,-0.338790727,-0.300936952,-0.295206854,-0.175989671,-0.061087429,-2.85004635,1.095878426,-2.480202078,#DIV/0!,#DIV/0!,-0.257025907,-0.083367967,-2.932374877,-0.269314707,pre
#DIV/0!,1.116486204,1.01061719,0.438298294,0.19070442,0.12148181,0.113848519,-0.165077892,-0.033494401,-0.196957893,0.020497519,-0.123612359,0.108308499,0.156929344,-0.214311285,-0.213524219,0.881189568,-0.084911609,0.315527632,0.602273284,-0.364923963,-0.292987417,-0.28207319,-0.157161054,-0.048390656,-2.330197192,0.492790549,-1.692175804,#DIV/0!,#DIV/0!,-0.096105659,-0.374377158,-2.34801364,-1.777874686,pre
0.076294361,0.692583864,0.790544564,0.217793375,-0.042725712,0.027018693,0.055290674,-0.148751472,-0.092127314,-0.177058934,0.020480679,-0.123442458,0.040425099,0.353318316,-0.197933744,-0.212800006,1.292659104,-0.085089537,0.437971746,0.70901226,-0.365827418,-0.274860368,-0.269805973,-0.152537836,-0.01642076,-2.080529367,2.647113428,-1.710700301,#DIV/0!,#DIV/0!,-1.10187712,-0.551156782,-3.460483816,-1.011500991,pre
-4.692784758,-1.290631799,0.72691074,0.006024786,-0.560785714,0.145216558,0.062402151,-0.172965785,-0.055569586,-0.174668066,-0.003182049,-0.098317163,0.104578617,0.193855604,-0.144440274,-0.178989158,0.338587745,-0.01654426,0.501006351,0.128026167,-0.31097345,-0.249240415,-0.260281912,-0.123565193,-0.024699202,-1.601782705,2.172043654,-0.268341766,#DIV/0!,#DIV/0!,0.094657099,-0.765454624,-0.29934126,-1.42042272,pre
0.5423975,1.048976241,0.568794072,0.256127502,0.083619319,0.220555184,0.080514241,-0.15292809,-0.015181372,-0.140754667,0.002891561,-0.091047402,0.070560974,0.195996488,-0.125825138,-0.106592216,0.360471391,-0.05971182,-0.197899565,-0.097138844,-0.326743321,-0.196628333,-0.233288283,-0.094659216,-0.010227541,-1.61114558,0.748638772,-1.821890733,#DIV/0!,#DIV/0!,-0.964220492,-0.327395309,-3.703157307,-1.103020192,pre
0.5423975,-0.741788836,0.419746337,-0.022121182,0.243270216,-0.010163572,-0.01277248,-0.244711676,-0.085210387,-0.171467414,-0.020729439,-0.073469611,0.046411387,-0.036445594,-0.09487034,-0.108037847,0.186049463,0.038103877,0.001541929,0.179080077,-0.228732612,-0.164516864,-0.238182314,-0.070532459,0.009535501,-2.239926745,1.330680274,-1.818937053,#DIV/0!,#DIV/0!,1.241991792,0.054202049,2.267227175,0.253216379,pre
0.5423975,0.895450979,0.599145298,0.023496008,-0.408811992,0.042928613,-0.014067431,-0.261977728,-0.080950454,-0.196632963,-0.061106837,-0.101683294,-0.01947105,0.048231069,-0.128181155,-0.088074085,0.082282709,0.020688145,-0.026357005,0.024808558,-0.223295447,-0.205525408,-0.263102493,-0.109752867,-0.079483454,-2.493827785,-0.051624228,-1.922468845,#DIV/0!,#DIV/0!,-0.129590401,-0.071269465,#DIV/0!,0.163901268,pre
#DIV/0!,-0.96781081,0.417843719,0.127099006,0.52315735,0.078585482,0.007981376,-0.176596174,-0.065734207,-0.18479199,-0.069927936,-0.124863821,0.067918126,-0.050670896,-0.137412635,-0.227976655,0.323570087,-0.072295958,0.000401668,0.476494415,-0.300206924,-0.226700893,-0.237792047,-0.127847645,-0.030602029,-1.722544994,1.628641843,-1.704020612,#DIV/0!,#DIV/0!,-1.209826358,-0.404477213,-3.550709863,-1.488667547,pre
2.643193485,-0.478844984,0.096259481,0.184273825,1.026140036,0.085850197,0.008405288,-0.150274344,-0.062846807,-0.16711264,-0.026329016,-0.114293987,0.037755869,-0.157080924,-0.12092911,-0.257488594,0.132796801,-0.078334092,-0.27538914,0.698581524,-0.311775325,-0.25548303,-0.265375622,-0.117230489,-0.010830868,-1.82847004,1.930122707,-0.762134002,#DIV/0!,#DIV/0!,0.364432915,0.067060899,-1.47868665,-1.683134521,pre
-0.877647878,-0.667586803,0.344427929,0.479618044,1.193660942,0.166979547,0.051510909,-0.17706298,-0.042957547,-0.17352921,-0.051070087,-0.114738469,0.10219458,0.081537848,-0.136432424,-0.245251709,0.590337578,-0.127289516,-0.345650258,0.796554411,-0.372534771,-0.29121093,-0.271957,-0.144633806,-0.027620911,-1.919891262,1.314199292,-1.318494469,#DIV/0!,#DIV/0!,-0.341458861,-0.412010537,-2.045455727,-1.25394411,pre
-4.329267343,1.005008232,0.527689919,0.348454036,0.829399418,0.127680769,0.049986872,-0.188577758,-0.029085225,-0.18186516,-0.046207374,-0.092007361,0.108628978,-0.225315236,-0.109323974,-0.27895837,-0.233797299,-0.129421198,-0.315968686,0.889941748,-0.377965732,-0.295158621,-0.266389735,-0.156062526,-0.044205028,-2.319084847,1.833088532,-1.90845189,#DIV/0!,#DIV/0!,0.116085894,-0.260239198,-0.652674569,0.474415231,pre
-0.72930948,-1.11862972,0.380877238,0.457963514,1.52919804,0.211393315,0.100383581,-0.178132939,-0.006095071,-0.16923145,-0.086474376,-0.115183334,-0.013813933,-0.039143404,-0.165078212,-0.181424887,0.37517203,-0.063412202,0.249634328,0.537733737,-0.314489291,-0.305057518,-0.273900904,-0.165235505,-0.031471048,-2.570531572,2.307848738,-2.039685915,#DIV/0!,#DIV/0!,0.235852761,0.174477705,0.510423008,0.07028067,pre
-1.092654331,-1.489127831,0.25724597,0.074744074,0.270282333,0.149140239,0.076715776,-0.172983262,-0.036608416,-0.156556423,-0.094202185,-0.093019305,0.069608535,-0.079512198,-0.144489569,-0.217364394,-0.472801782,-0.088225872,-0.448758418,0.579407853,-0.361950266,-0.30808023,-0.288807357,-0.174396868,-0.052753031,-2.448619186,2.317392126,-1.657447137,#DIV/0!,#DIV/0!,-0.085018799,-0.206578053,-3.867634029,-1.991273006,pre
0.29435938,-0.266850671,0.305592126,-0.073326091,-0.336506575,0.177162701,0.110216603,-0.147099105,0.005559794,-0.137926228,-0.020748481,-0.077119804,0.031598323,-0.081520413,-0.152059661,-0.160286733,0.099213367,-0.118210525,-1.061099197,0.298039186,-0.349148475,-0.305012792,-0.276978452,-0.145653977,-0.069301136,-2.799554896,1.480012178,-2.095729505,#DIV/0!,#DIV/0!,0.315594387,-0.418755817,-4.903104114,-2.625527009,pre
-6.057582538,-1.524131986,0.372832738,0.16214977,0.876925609,0.231244088,0.127698368,-0.130198872,0.023970699,-0.135696074,-0.063047518,-0.084134028,0.063442192,-0.051603202,-0.142354503,-0.216371815,0.034115365,-0.050861657,-0.375747166,0.500033236,-0.288687158,-0.285285129,-0.244948878,-0.153431856,-0.034001051,-3.751299096,1.234388197,-3.491389519,#DIV/0!,#DIV/0!,0.319987212,-0.21752108,-2.356375626,-2.258784837,pre
-6.720591496,-2.008987011,0.512146536,0.113774785,-0.023553242,0.277738149,0.153451464,-0.111053151,0.030084004,-0.151282234,-0.004227651,-0.12196775,-0.032549376,-0.01508609,-0.1827277,-0.224784839,0.854548902,-0.17511861,-0.765584756,0.26760564,-0.362277829,-0.293507336,-0.162092851,-0.169565631,-0.02358899,-5.641991949,1.17460213,-6.758833277,#DIV/0!,#DIV/0!,1.062067398,0.229920882,-1.50006763,0.69303094,pre
-2.841741283,0.220544621,0.442151614,0.29409845,0.144688821,0.235128155,0.128410944,-0.122116997,0.018576741,-0.170920875,-0.007150281,-0.114464593,-0.018643014,0.132744912,-0.132463883,-0.195140875,1.182405458,-0.056907905,-0.974883066,-0.278162067,-0.256735788,-0.229706038,-0.126624015,-0.146777443,-0.026636255,-5.2176342,1.676085233,-1.410301376,#DIV/0!,#DIV/0!,0.568698132,0.024927983,-4.415695963,-3.694948032,pre
-2.00101646,-0.090798274,0.455340353,0.392903148,1.046655092,0.255785484,0.150721387,-0.132776946,0.044684712,-0.134928908,0.029110105,-0.074927613,0.046946474,-0.233893755,-0.111366515,-0.261435305,-0.19818143,-0.076576493,-1.854002606,0.602299488,-0.244595559,-0.187882658,-0.114681115,-0.13218512,0.005975086,-5.2176342,1.359947447,-7.74392891,#DIV/0!,#DIV/0!,-0.702959502,-0.055126574,-1.774424124,-0.692979992,pre
0.5423975,-0.73317157,0.558169669,0.12842268,0.501209083,0.230190902,0.139662513,-0.205409253,0.055431629,-0.117336032,-0.022435969,-0.04240719,-0.051678385,0.020840821,-0.14585602,-0.152915592,-0.185235349,-0.038259241,-0.516775091,-0.424968391,-0.251132875,-0.185787789,-0.194223949,-0.084249959,0.020618365,-2.692996253,0.532533672,-2.731343927,#DIV/0!,#DIV/0!,0.88076787,0.085658012,-4.959805788,-0.466400613,pre
-1.36516297,1.004970258,0.632568423,0.27321601,0.747497358,0.225294711,0.132512636,-0.215823343,0.075065626,-0.103174846,-0.02215507,-0.007152069,0.048307618,0.202785414,-0.138883061,-0.086713463,1.207679442,0.014548703,-0.786904343,-0.122348804,-0.169392765,-0.172036187,-0.20236926,-0.064658054,0.014417435,-1.500853469,1.140587278,-1.322991346,#DIV/0!,#DIV/0!,1.144543296,0.437461898,-2.630330115,-1.855418541,pre
4.47279072,-0.067430259,0.740252505,0.384637707,1.072776311,0.23282256,0.151402009,-0.179489646,0.096897096,-0.095812711,-0.033525756,-0.009524,0.039844244,0.226468605,-0.120704749,-0.145636078,0.360897415,0.032064467,-0.116741525,-0.303683456,-0.151128604,-0.175285112,-0.206499015,-0.046644365,0.021829905,-1.459489574,1.659391794,-0.707480146,#DIV/0!,#DIV/0!,-0.071142565,1.03489179,-1.039363385,0.730910248,pre
-2.318943205,-0.183806079,0.624459584,0.342861359,0.491333331,0.140208907,0.11059867,-0.151880708,0.041086515,-0.092409035,-0.052240659,-0.010623888,0.07867395,-0.172621217,-0.110487911,-0.16978583,-0.124430409,-0.106884279,-0.710092899,0.089936774,-0.294507121,-0.166427289,-0.20731983,-0.079544615,-0.015631648,-1.235818942,1.709861938,-1.109261614,#DIV/0!,#DIV/0!,-0.196873272,0.471275821,-3.072927595,-1.713031978,pre
-1.36516297,-0.827238891,0.5436224,0.094550812,-0.010346237,0.217856748,0.137367029,-0.141697556,0.054672085,-0.097876332,-0.04383015,-0.018828164,0.04815871,0.092954844,-0.111825367,-0.20087479,0.099653317,-0.02747322,0.522091609,0.91186111,-0.232700203,-0.184719918,-0.194643288,-0.060671536,0.023859334,-1.525580311,2.183094755,-0.719144764,#DIV/0!,#DIV/0!,0.407194716,0.273373724,0.46833535,-0.451080383,pre
-0.72930948,-1.395229949,0.586339163,0.1397983,0.472233649,0.255619469,0.163276363,-0.131506523,0.11699807,-0.095675749,-0.06028559,-0.030972313,0.004709095,0.201797258,-0.176743869,-0.16617248,0.977945853,-0.026807955,-0.256902107,0.069330449,-0.209440001,-0.183502352,-0.199681718,-0.069278004,-0.014564425,-1.115590173,1.698855938,-1.017209955,#DIV/0!,#DIV/0!,-0.141042206,0.336777781,-4.968909168,-2.184233218,pre
0.5423975,0.09526005,0.465814433,0.399546172,0.644373266,0.162399757,0.130519515,-0.145986999,0.079854618,-0.098701732,-0.054708942,-0.029519883,-0.026080997,-0.179372788,-0.176453591,-0.217644244,-0.458055774,-0.100415051,-0.395774317,0.616642434,-0.271687169,-0.193381235,-0.20840438,-0.058931632,-0.029649058,-1.842985021,0.737346623,-0.564227506,#DIV/0!,#DIV/0!,0.675368382,0.312503861,0.24759899,-1.80669102,pre
-1.36516297,-0.155334724,0.575849094,0.09305656,0.624901932,0.22810851,0.155575697,-0.136048642,0.102964414,-0.090397381,-0.059406585,-0.038025622,-0.102141462,0.049172449,-0.192425491,-0.139488999,0.426116508,0.027508975,-0.001803057,0.509260788,-0.187153655,-0.20117428,-0.256721481,-0.054065965,-0.022879109,-1.213883451,0.994889637,-0.649022059,#DIV/0!,#DIV/0!,0.182476198,0.301436159,-2.496746303,-1.259221202,pre
-3.27272344,0.572086109,0.268757187,0.085783297,0.448805513,0.236518759,0.178508605,-0.125617919,0.114670236,-0.092962783,-0.055937399,-0.024318139,0.052949251,0.415603373,-0.124072731,-0.079659549,1.463030875,0.029941168,-0.165361916,0.09913753,-0.140746897,-0.213155081,-0.260893331,-0.042764188,0.001027784,-2.182948685,1.434415285,-0.954704408,#DIV/0!,#DIV/0!,0.464723054,-0.117178377,-2.718922424,-1.139104082,pre
-2.001187323,-0.227341123,0.1558845,0.306999608,1.411815453,0.172673228,0.145028342,-0.106538473,0.052241052,-0.076032861,-0.043338319,-0.025635128,0.04958671,0.313966978,-0.141631663,-0.145913271,0.889211106,0.015087244,0.325212457,0.851018236,-0.180918762,-0.176872638,-0.200040392,-0.0365758,0.041310772,-2.038017106,3.252927164,0.730554898,#DIV/0!,#DIV/0!,-0.566971,-0.041605168,-0.410848008,-1.190270451,pre
0.5423975,-0.05839336,0.339710988,0.131326644,0.575817338,0.185144864,0.178749763,-0.026228474,0.085936002,-0.059015666,-0.051961784,0.018080679,0.028438505,-0.06953052,-0.085131532,-0.16101211,-0.027537304,0.001387481,-0.810445423,0.659516959,-0.166807293,-0.142445357,-0.183543663,-0.048360445,-0.011000686,-1.256383717,0.738645261,-0.672158853,#DIV/0!,#DIV/0!,0.382634083,0.078590877,0.088332723,-1.564015932,pre
-3.272851588,-0.252311057,0.203740398,0.146982988,0.784528629,0.197914198,0.169925059,-0.058729631,0.094810541,-0.062416631,-0.0317231,0.013488949,0.011732699,0.118567851,-0.040035779,-0.098149275,0.169631093,0.018263763,-0.215702892,0.071117915,-0.163442418,-0.164185718,-0.232014409,-0.041863292,-0.007770419,-1.338791254,0.259709483,-0.840921416,#DIV/0!,#DIV/0!,-0.679942566,-0.124268064,-7.32486272,0.957571167,pre
0.5423975,-0.210685853,0.198291722,0.371572267,0.70024961,0.227150091,0.173377023,-0.07906525,0.108709255,-0.070581815,-0.042541139,-0.001999833,0.018440798,0.072871611,-0.07186514,-0.117188742,-0.158687276,0.009831474,-0.154886813,0.105898294,-0.153572285,-0.170209718,-0.234142188,-0.018901682,0.010473498,-1.259985465,0.747619494,-0.603693499,#DIV/0!,#DIV/0!,1.226729407,-0.049843609,-0.143054205,-0.879931048,pre
-0.72930948,-0.490920678,0.184015474,0.306422311,0.708650069,0.153975574,0.149068488,-0.065163736,0.054668746,-0.069468668,-0.032892513,-0.005656843,-0.022140689,0.197737211,-0.080686064,-0.062159785,1.13069064,0.003898877,-0.201668141,0.352304598,-0.185096265,-0.191721695,-0.242206741,-0.046303046,-0.007752636,-0.803642888,0.480278319,-0.552396445,#DIV/0!,#DIV/0!,-0.115914025,-0.0618361,-1.69788272,-1.967438693,pre
-0.72930948,-0.05839336,0.272547725,0.032929423,0.572510755,0.179159133,0.151850779,-0.074166252,0.08940997,-0.07004424,-0.056455598,0.01619867,0.101849521,0.238892067,-0.028544749,-0.048125619,0.894929958,0.040895319,-0.422227799,0.388939841,-0.108261269,-0.184848174,-0.217820848,-0.053777946,0.012052394,-1.017632197,1.591291701,0.593362453,#DIV/0!,#DIV/0!,-0.657385717,0.260737124,0.631311274,0.973413986,pre
-0.220626688,-1.619726387,0.113120733,0.165166659,0.141487213,0.128403554,0.117877976,-0.086880384,0.070621836,-0.075303688,-0.036547798,0.000147012,0.027459156,-0.092971733,-0.061816326,-0.144258504,0.410342961,-0.035666434,-0.716878661,0.485656042,-0.208863869,-0.182055885,-0.223661437,-0.029311418,0.004490788,-0.959537596,1.144422604,-0.852168089,#DIV/0!,#DIV/0!,-0.226261308,0.360863579,-0.908755143,-0.676220115,pre
0.466160482,1.1809657,-0.013172737,0.32684467,0.852398874,0.242656721,0.166275295,-0.085803707,0.129532693,-0.079434889,-0.062376407,-0.010055126,0.032586552,-0.25745263,-0.066580063,-0.178188628,-0.474040087,-0.055761495,-0.683699809,0.879000606,-0.236284816,-0.191973086,-0.210513062,-0.051199402,0.006841329,-1.236703772,1.219953805,-0.995125884,#DIV/0!,#DIV/0!,0.154755169,0.408865409,-3.072927595,-0.11077725,pre
3.313254954,1.077109546,-0.14860365,0.236627279,0.41755222,0.110436248,0.10550257,-0.079085454,0.045003273,-0.0838818,-0.034420115,-0.010726617,0.030576206,0.143568473,-0.067193706,-0.092371525,0.314530324,-0.015500382,-0.131707669,-0.047032856,-0.20777225,-0.200079036,-0.234721788,-0.047638073,0.004805122,-1.093044272,1.714683884,-0.615366013,#DIV/0!,#DIV/0!,-0.787546817,-0.324571835,-4.235596417,-0.723727281,pre
-1.603836639,-1.362619203,0.103984877,0.393502229,1.211263788,0.187089422,0.129334526,-0.083652325,0.091925174,-0.08591483,-0.093362398,-0.006164257,0.020966741,0.102423584,-0.050862559,-0.113444269,-0.486090806,0.016761097,0.291484713,0.997014728,-0.132980289,-0.185462851,-0.216945374,-0.034995139,0.003446121,-0.71511043,0.765933945,-0.826440857,#DIV/0!,#DIV/0!,-0.275881208,0.443648988,-2.874617378,-1.079770498,pre
-4.48242998,1.606980351,0.106517784,0.205912608,0.590895042,0.159263527,0.13236648,-0.086951488,0.112923415,-0.087647535,-0.051136949,-0.025371126,-0.042752916,0.06221388,-0.114533871,-0.046945854,0.122043883,-0.022940013,-0.800577713,0.043936248,-0.202255854,-0.200047871,-0.256158093,-0.044871057,-0.014599032,-1.393463084,-0.005555857,0.146715111,#DIV/0!,#DIV/0!,0.432848352,-0.073134576,2.604319038,-0.333359012,pre
-5.294770741,2.948676373,0.057021263,0.219208767,1.173922457,0.125170431,0.113761198,-0.079298907,0.070091301,-0.086541277,-0.076686627,-0.011573403,0.072543884,-0.184270055,-0.056156077,-0.088892589,0.217379843,0.049909122,-0.446145559,0.580805248,-0.110594527,-0.220388953,-0.259964413,-0.059039312,-0.00323313,-1.971490515,1.298764172,-1.165547568,#DIV/0!,#DIV/0!,0.446255425,0.512800607,-0.58590946,-0.602052257,pre
-2.182762113,-1.567319553,0.311959986,0.23217117,0.666515296,0.185030073,0.110417285,-0.065487467,0.062751762,-0.090685835,-0.042943189,-0.012590701,-0.002810591,-0.156816872,-0.042860673,-0.100451319,0.399761068,-0.00170908,-1.203552681,-0.4367466,-0.174156308,-0.19572281,-0.245075105,-0.045337184,-0.010899235,-0.950965111,0.223786668,-0.714254807,#DIV/0!,#DIV/0!,2.80373315,0.063872267,2.267227175,-0.492674134,pre
-2.121055188,-0.38175823,0.246941861,0.12485157,0.829307267,0.043254711,0.047937366,-0.074670179,-0.008640539,-0.1006117,-0.056887139,-0.023640712,0.004799168,0.190016758,-0.078871212,-0.116601084,0.783277613,-0.03187794,-0.300086053,0.342259868,-0.188451904,-0.201769091,-0.225452871,-0.052994019,-0.021464625,-0.974979423,0.475961314,-0.899109395,#DIV/0!,#DIV/0!,0.115024159,0.144421439,-2.988595964,-0.052353503,pre
-0.411382735,0.703891293,0.269498566,0.081923976,0.625441659,0.135007213,0.077792603,-0.104549195,0.040961514,-0.10281549,-0.065850373,-0.028364279,0.042316541,0.172633334,-0.092556145,-0.101697659,0.635486328,0.041871821,-0.112530705,0.649219585,-0.120973274,-0.19144698,-0.233720476,-0.043723287,-0.010322337,-0.75176234,0.738749578,-0.970936898,#DIV/0!,#DIV/0!,0.203312246,-0.07405784,-1.29648607,1.949207234,pre
0.5423975,0.380216451,0.235892287,0.127106777,-0.073822138,0.040808341,0.043009135,-0.104292612,-0.004894867,-0.100394752,-0.071603517,-0.024096447,0.00367027,0.178827301,-0.100211506,-0.078563349,0.729094494,0.035308338,0.014396818,0.251028914,-0.119219012,-0.18327494,-0.234986719,-0.032954373,0.018482156,-0.971262231,1.204635,-0.581254997,#DIV/0!,#DIV/0!,0.244220193,0.137697363,0.361637784,-0.602621297,pre
-1.923252583,-1.012173625,0.092499781,0.02215937,0.688579175,0.07374719,0.057369464,-0.09927525,0.024785494,-0.095959376,-0.041504027,-0.019812561,0.027648856,0.121149918,-0.101280043,-0.115223165,0.498125885,-0.022125679,-0.025516716,0.017435706,-0.16663258,-0.180851599,-0.205460906,-0.034716694,0.040771351,-0.999973529,2.757215916,-0.572248162,#DIV/0!,#DIV/0!,0.062294447,0.390855508,-0.77074321,-0.743977787,pre
0.5423975,-1.106764487,0.120983138,0.193609668,0.662210803,0.005317058,0.041640341,-0.086949267,0.003748136,-0.08696331,0.004927574,-0.003014265,0.079344429,0.214812078,-0.087995858,-0.091780151,0.63953444,-0.045920591,0.066164421,0.053559336,-0.170368547,-0.17356354,-0.213734342,-0.068903127,-0.005520287,-1.161929471,1.393776764,-0.501227693,#DIV/0!,#DIV/0!,0.005805688,0.209134098,-0.560252284,0.309793334,pre
1.13140905,1.525866374,-0.02428258,0.00546969,-0.281945497,0.040335433,0.050673815,-0.078004463,0.016832527,-0.085725424,-0.078179122,-0.02923798,-0.007218851,0.305597241,-0.130620971,-0.066371414,0.480483073,-0.042485545,-0.94415433,-0.077768265,-0.176835011,-0.198736143,-0.230243822,-0.051127531,-0.003737019,-1.02387076,1.296601878,-0.53925163,#DIV/0!,#DIV/0!,1.096760375,0.802474477,-0.09930725,-1.496031255,pre
2.974392256,0.581048938,0.171310406,-0.032213485,0.113572883,-0.005053057,0.031864469,-0.06957025,-0.026708296,-0.078794909,-0.061591072,-0.008937331,0.013539152,-0.137105839,-0.080506738,-0.205070334,-0.198709721,-0.030239909,-0.112324446,0.285413703,-0.161148888,-0.218754219,-0.232940238,-0.081662721,-0.002786459,-1.078806011,1.395254401,-0.442441546,#DIV/0!,#DIV/0!,0.258319548,-0.235941527,-1.420610309,-1.056187421,pre
-0.167928625,1.11642925,0.156796363,0.186188897,0.880253077,0.149613007,0.107975947,-0.062455072,0.073880223,-0.074106213,-0.018951822,-0.005404738,0.045077909,0.085254274,-0.062033997,-0.160883125,0.151056177,-0.022053791,0.278824219,0.549458154,-0.144902792,-0.19548117,-0.200164732,-0.061375236,0.011738743,-1.127152019,1.402314547,-0.651796652,#DIV/0!,#DIV/0!,-0.027605635,0.4286286,-0.101596157,0.456113427,pre
-2.587209092,-0.556265858,0.064073482,0.157923832,0.974730239,0.107012857,0.081119818,-0.0581767,0.060670269,-0.066520209,-0.030389516,0.007922416,0.022412728,-0.319596847,-0.054359041,-0.14650868,-0.427780852,-0.095346401,-1.262757847,-0.446082226,-0.237518523,-0.185961251,-0.233148301,-0.054445968,0.005014992,-0.763181962,1.077882606,0.138030052,#DIV/0!,#DIV/0!,1.318365272,0.622647871,-3.60762691,-1.746808113,pre
-5.8615278,1.253010059,0.05849778,0.217135597,0.677796952,0.047536484,0.057458751,-0.053301806,0.021146565,-0.067218051,-0.040954556,-0.015542498,-0.035590586,-0.059938699,-0.117586723,-0.117102068,0.514391133,-0.086993192,-0.500294664,-0.290428869,-0.198723042,-0.167447412,-0.228671753,-0.056189678,0.00556717,-0.623766532,1.871462569,-0.470304257,#DIV/0!,#DIV/0!,-0.316823253,-0.018257399,-3.654000402,-0.53636092,pre
-5.536627718,0.418496773,-0.057645886,0.067832218,-0.116294749,0.056717556,0.076372925,-0.047640859,0.039746121,-0.061610328,-0.055342426,-0.001186896,0.019157217,-0.003822722,-0.059029978,-0.071997435,-0.355323994,0.043774603,0.702673807,-0.238348448,-0.05909121,-0.15219433,-0.215059076,-0.038082312,-0.017555859,-0.24959446,1.426156301,0.470738081,#DIV/0!,#DIV/0!,0.415811473,0.929229492,-2.235369158,0.203863375,pre
-4.82523309,0.220544621,-0.242472207,-0.139267428,-0.250630909,0.046412646,0.071446828,-0.038764827,0.024848628,-0.050280989,-0.008609506,0.008510202,0.026772058,-0.200062699,-0.061930963,-0.134139808,-0.64230336,-0.033399906,-0.354871312,-0.347333807,-0.164602147,-0.151656576,-0.213796774,-0.036959339,0.009527612,-0.984174538,0.709764459,-0.172798768,#DIV/0!,#DIV/0!,0.734352636,0.561032692,0.631311324,2.104147855,pre
-3.729407602,-0.939740988,-0.240822791,0.167153778,0.961389711,0.108651243,0.098302526,-0.028799012,0.032513799,-0.035837294,0.01316342,0.024683511,0.120684026,-0.041817329,-0.047754677,-0.166663968,-0.130402819,0.002410295,0.283162031,-0.030301013,-0.100779735,-0.137878405,-0.202377259,0.001727575,0.037742238,-0.484064959,1.57226875,1.677545255,#DIV/0!,#DIV/0!,0.371145939,-0.052692716,-1.292876005,0.544841581,pre
-2.20216927,1.174453034,-0.053017394,0.041577481,-0.568687735,0.122235023,0.103074744,-0.004100498,0.079560653,-0.03215581,-0.02382702,0.061805619,0.060597486,-0.10239858,0.032516931,-0.042708999,-0.606744346,0.024671292,-0.357200573,-0.87082241,-0.071488334,-0.105480215,-0.184411325,-0.004098048,0.026596038,0.28869867,0.871139359,0.19963825,#DIV/0!,#DIV/0!,1.196540906,1.325445496,-2.528817773,-0.905596192,pre
-1.73716577,1.076995637,-0.043289743,0.395673049,1.330708538,0.119231546,0.106471338,0.029231626,0.042438229,-0.03453388,-0.0138224,0.051915805,0.108049287,0.090646066,0.002259885,-0.076443855,0.267072418,-0.090886231,-1.153755205,0.085660477,-0.21737995,-0.119830507,-0.191305656,-0.02652248,0.006290169,0.525450746,1.160451691,-0.094185921,#DIV/0!,#DIV/0!,0.549944272,0.005438186,0.365894933,-0.045758201,pre
-1.401213673,0.293084054,-0.050924555,-0.071255468,-0.134847249,0.048620047,0.079227032,0.039668254,0.015436852,-0.038508801,-0.002731591,0.055503793,0.153020121,0.096680402,0.069914812,-0.030043161,0.338421574,-0.031439665,-0.453145357,0.165443546,-0.13972937,-0.12978188,-0.202864368,-0.026020934,0.009844222,0.519516364,0.972368588,0.693918691,#DIV/0!,#DIV/0!,1.460966642,0.485615096,-2.726592403,-2.123095137,pre
0.065507382,-0.051421616,-0.041523695,-0.009991053,0.219101629,0.011065346,0.049279351,-0.002399985,0.001649211,-0.036665227,0.001405329,0.029089874,0.035034938,0.137540527,0.000424571,-0.023861545,0.840082477,-0.015983141,-0.284758103,0.376279296,-0.14068298,-0.120868575,-0.201645563,-0.013374868,0.015641135,-0.009467653,0.71118303,0.828821423,#DIV/0!,#DIV/0!,0.4977036,0.117342444,-4.018272163,-1.016786669,pre
-1.956604379,-0.058329286,0.018559206,0.117831613,0.137112169,0.057474421,0.074648483,-0.025748707,0.042736891,-0.050883001,0.005485845,0.005818519,0.059233228,-0.19562034,-0.006652418,-0.081000629,-1.017635487,-0.108528366,-1.741994418,-0.106422248,-0.219991442,-0.144175895,-0.214214801,-0.052324867,-0.00702496,-0.363565145,0.822447846,-0.490396706,#DIV/0!,#DIV/0!,0.771004798,0.432171424,-0.979031503,-0.197106895,pre
0.5423975,0.206758354,0.024386104,0.483370208,1.475623376,0.051196552,0.048732349,-0.02941146,0.005479784,-0.054830897,-0.006400402,-0.017188057,0.051931469,0.024526289,-0.062262829,-0.151898367,-0.34619499,-0.052445675,-0.133039961,0.062639696,-0.18026713,-0.178629466,-0.234432448,-0.057746061,0.007575289,-0.421920165,1.443803853,-0.093527055,#DIV/0!,#DIV/0!,0.193900646,-0.011037701,0.103054723,0.931054771,pre
-0.220626688,-2.106624683,0.0720676,0.137430852,0.294257453,0.025939732,0.044457701,-0.031618559,-0.009356893,-0.055462211,-0.015141036,-0.023502298,0.02138589,0.064623041,-0.061678537,-0.080595472,0.146728648,-0.045555768,0.146122694,0.120656913,-0.186676879,-0.162208517,-0.212151422,-0.052992147,-0.00330639,-0.162389646,0.469764286,-0.750543783,#DIV/0!,#DIV/0!,0.31417206,0.104512344,-1.676996867,-0.37579648,pre
0.5423975,-0.690715037,0.009976769,0.026036468,-0.107475896,0.036581234,0.041787671,-0.032217325,-0.019879645,-0.054215419,-0.030009881,-0.016970168,0.054963457,0.034082877,-0.065713161,-0.050579536,0.394831469,-0.011008683,0.092965544,-0.046200557,-0.123689005,-0.167728605,-0.213439466,-0.045546621,0.017835482,-0.218130279,0.986955128,2.058159394,#DIV/0!,#DIV/0!,0.706248176,0.520346407,0.365894933,0.582935488,pre
0.5423975,-0.462872208,0.122972197,0.28127656,0.877675828,0.080368444,0.060301173,-0.032122217,0.026283978,-0.050195901,0.008875523,-0.017129179,-0.006336207,0.26863052,-0.09267256,-0.056520223,0.892985631,-0.06168757,-0.176722894,0.424023054,-0.198105093,-0.159140061,-0.208088799,-0.028010089,0.051678337,-0.037274776,1.946173398,0.207561336,#DIV/0!,#DIV/0!,0.028261583,0.444567823,-2.458341932,1.087930304,pre
#DIV/0!,-1.137714491,0.210877951,-0.082053181,-0.164698211,0.077784826,0.066542459,-0.031887408,0.029939977,-0.059419873,-0.042302136,-0.003566313,0.002475187,0.164220787,-0.039224146,-0.08183835,0.075020308,-0.013312285,-0.212855037,-0.372194873,-0.129509403,-0.17858015,-0.240594342,-0.048299022,0.00451272,-0.205635759,0.959460975,-0.040512158,#DIV/0!,#DIV/0!,0.505505589,0.766805018,0.361637784,0.226480663,pre
-3.27272344,-0.660760285,0.193344761,0.465479452,1.583693217,0.118911812,0.073904497,-0.038524624,0.018698191,-0.058574783,-0.024356429,-0.013533217,0.070059624,0.173511025,-0.076103225,-0.063553591,0.930695444,-0.078779689,0.829352856,0.700691534,-0.175957049,-0.160177403,-0.182989984,-0.069496702,0.004957721,0.035141637,1.290536036,-0.407867041,#DIV/0!,#DIV/0!,-0.143846204,-0.503142832,0.206628666,-1.245098431,pre
0.5423975,0.334258214,0.198911588,0.023193124,0.138108254,0.080368573,0.048990259,-0.041287064,0.036703741,-0.054324835,0.016337816,-0.007841702,-0.014561654,-0.411524173,-0.087039114,-0.089386612,-1.036653979,-0.016212744,-0.500328751,-0.620059971,-0.111133008,-0.152480845,-0.23714205,-0.028988547,0.007501422,0.494123136,0.488336394,-0.134878733,#DIV/0!,#DIV/0!,0.68427674,0.756366751,-0.908755143,0.659180454,pre
#DIV/0!,-0.01881087,0.025701299,-0.000315705,0.274242038,0.062907641,0.043176893,-0.056005415,-0.010253847,-0.055054324,-0.030476546,-0.002043343,0.11190298,0.309159015,-0.039268466,-0.011887587,0.645016724,-0.045719976,0.305792763,0.29001247,-0.146903228,-0.147765223,-0.218953197,-0.029668176,0.026574843,-0.603311596,0.980665995,-0.39308923,#DIV/0!,#DIV/0!,0.025638736,0.307944309,-0.313187026,0.971600568,pre
0.5423975,0.293084054,-0.432526227,0.402613495,1.552769565,0.019564999,0.020150113,-0.047990108,-0.032542111,-0.056294701,-0.02015941,-0.001053074,0.091443108,0.423704113,-0.023184984,-0.008152952,1.187722808,-0.037036265,0.157022033,-0.12623026,-0.157575969,-0.14081722,-0.21489994,-0.020797723,0.024749053,-2.679427451,1.332691706,-0.991977458,#DIV/0!,#DIV/0!,0.925674756,0.304169071,-1.164835718,-0.065750823,pre
0.5423975,-0.303387541,0.207768221,0.048232456,-0.14802766,-0.047146915,0.005085537,-0.041398095,-0.018391005,-0.049669695,0.015465101,0.017068679,0.016696521,-0.000789857,-0.044384514,-0.044515444,-0.872370474,-0.021843959,-0.537441497,0.146303073,-0.113823189,-0.139303173,-0.209224624,-0.019324156,0.015869647,-0.185050066,0.855394836,-0.00378869,#DIV/0!,#DIV/0!,0.53057843,0.691902583,1.11486459,-0.11221581,pre
-3.27272344,1.710368002,0.311717233,0.38759913,1.540741438,0.113541986,0.055347525,-0.034627451,0.013780709,-0.049663576,0.013772016,0.033046251,0.083732897,0.368435857,-0.002899545,0.003953943,0.593052686,0.025185562,0.40013332,0.256777642,-0.080056136,-0.114047321,-0.177353116,-0.003750147,0.061547872,-0.349810488,2.29354338,-0.077561581,#DIV/0!,#DIV/0!,0.437593215,0.298633584,0.20251903,-1.047140651,pre
0.5423975,-1.137714491,0.276424828,-0.095155626,-0.364214293,0.129441551,0.068031149,-0.029195675,0.018150498,-0.056220057,0.015500524,0.005937216,0.115176076,0.18060593,-0.048335987,-0.021051001,0.345846619,0.003254902,0.208545132,0.007384457,-0.106436611,-0.125273478,-0.177236726,-0.04578337,0.008639145,-0.659712749,0.942073474,-0.442176715,#DIV/0!,#DIV/0!,0.601172337,0.814891683,0.871296447,1.082276675,pre
0.5423975,-0.239644934,0.046029054,0.003523518,-0.032513554,-0.003613957,0.018594832,-0.021280682,-0.037813932,-0.053952635,-0.008170402,0.027453092,0.084743692,0.187899249,0.01353797,0.000351558,-0.064623029,-0.01517811,0.072158974,0.517129445,-0.080691367,-0.182014748,-0.207047933,-0.051571647,0.004595619,-0.299676762,0.473452362,-0.107958691,#DIV/0!,#DIV/0!,0.88439467,0.614159573,-0.065758285,1.399654077,pre
-0.411382735,-0.705051611,-0.199447665,0.324201691,1.092919979,-0.01009087,0.016255621,-0.018074696,-0.058205394,-0.070403829,-0.040521071,-0.008367585,-0.003945077,0.072078179,-0.053138771,-0.059340421,-0.079978078,-0.079209476,0.320875395,0.767596109,-0.161513204,-0.18646139,-0.190108766,-0.068774781,0.004189349,0.383119806,1.560070552,1.236085914,#DIV/0!,#DIV/0!,0.891173677,0.269431635,1.024432184,-1.369978572,pre
5.89100516,0.545026758,-0.154672695,0.126903973,0.719972951,0.066442826,0.042624972,-0.037585257,0.016432224,-0.067411271,-0.050122701,-0.017734934,0.056594785,0.179449622,-0.040302819,-0.039893988,0.651812502,-0.053547423,-0.489603949,0.188437344,-0.161004521,-0.18613041,-0.22114823,-0.069454694,0.027756908,0.011989444,2.234686014,-0.137824323,#DIV/0!,#DIV/0!,1.264448252,0.829623891,0.487175585,-0.918060437,pre
1.405694424,-0.303387541,0.071507837,0.33516042,0.753810569,0.100099645,0.051798363,-0.038782407,0.030597813,-0.062144961,-0.036944227,-0.022618641,0.016643434,0.091825622,-0.039951922,-0.060763775,0.424299148,-0.067589158,-0.277570148,0.331938113,-0.172156311,-0.171679041,-0.18635776,-0.059718747,0.011373554,0.251858976,1.240562672,0.258782703,#DIV/0!,#DIV/0!,0.805974924,0.191878621,-0.908755143,0.715838083,pre
-5.814603831,-0.074372318,0.307104317,0.125861683,0.469804936,0.142319939,0.063656883,-0.028385728,0.006826795,-0.051193382,-0.029739698,-0.004437974,0.041607027,-0.005009128,-0.007927551,-0.106933463,0.139060814,-0.059171842,0.360437642,0.860411068,-0.176928524,-0.194272349,-0.193549087,-0.073800744,0.018003013,0.240993086,2.33257409,-0.556345437,#DIV/0!,#DIV/0!,0.302712125,0.413850851,-1.69788272,-0.052408346,pre
-2.132061924,2.00282058,0.157590433,0.332575693,0.578478481,0.047874963,0.043131939,-0.022049766,-0.010776317,-0.055238747,-0.052732913,0.011665361,0.063432607,-0.187812785,-0.000328892,-0.080619552,-1.094065352,-0.027598801,0.36964002,0.257697625,-0.12455796,-0.185053117,-0.184613585,-0.074324825,-0.005458133,-0.279589645,1.007660196,0.170317745,#DIV/0!,#DIV/0!,1.69355201,0.930030199,1.498985452,0.204939226,pre
-3.402505972,-0.561673966,0.289884105,0.217990864,0.910722647,0.088443008,0.057806927,-0.014858686,-0.001066872,-0.046347653,-0.043156547,0.010273482,0.108711683,-0.224207159,-0.02497263,-0.115270268,-0.978623598,-0.126038707,-0.15607156,0.698261908,-0.235867005,-0.196632868,-0.181990753,-0.072073737,-0.012360988,-0.324931504,1.233864398,0.556307858,#DIV/0!,#DIV/0!,0.627613362,0.601917613,0.365939279,-1.891799554,pre
2.46442612,1.35139719,0.077619257,0.210074578,0.342722902,0.103260275,0.064133524,-0.004993931,0.007819471,-0.042740321,-0.022972078,-0.001766107,0.021750037,0.370037128,-0.049424244,-0.001087032,1.608531405,0.010481748,0.434562087,0.564138866,-0.091577623,-0.215642788,-0.225292243,-0.073430058,-0.000285043,-0.389121796,1.59521998,-0.101904238,#DIV/0!,#DIV/0!,1.433289516,0.679260584,-0.476911093,1.145711254,pre
2.836364806,2.276772207,-0.031363492,0.157371698,0.783763552,0.074547983,0.066348703,-0.001263726,0.011026511,-0.04302201,-0.035286747,0.021147845,0.033311671,0.00611678,-0.048856675,-0.127281578,0.051432307,-0.118678079,0.334960288,0.558998623,-0.239970663,-0.166913676,-0.174420583,-0.051014407,0.007927905,0.475883626,2.05863256,0.195076793,#DIV/0!,#DIV/0!,0.860017124,0.304052765,-0.87819128,1.052862482,pre
2.35001368,-0.204103423,0.017360097,-0.049121875,-0.330087992,0.081679267,0.078753696,0.017946693,0.020046483,-0.041970573,-0.039090034,0.036316467,0.133121934,0.279254521,-0.005339775,-0.023940215,0.784321122,-0.099948832,0.325483798,-0.360112261,-0.189834847,-0.182602193,-0.231009694,-0.06109843,0.02173982,0.621999376,2.060613914,0.443519194,#DIV/0!,#DIV/0!,1.633457138,0.53125179,1.773357496,3.000445714,pre
-8.438928509,-0.15527777,0.043531599,0.364757831,1.478067647,0.151928236,0.110934978,0.023361386,0.036527249,-0.038643842,-0.022578996,0.042943934,0.092271603,0.201125049,-0.038418929,-0.027004688,0.777957765,-0.073213063,0.122078987,0.162362883,-0.190830684,-0.17892443,-0.211232803,-0.054335492,0.018865108,0.193634456,1.977942519,0.84518016,#DIV/0!,#DIV/0!,1.568434604,0.50654366,0.516197146,0.829086734,pre
-5.591487598,0.572150183,0.242204174,-0.056902417,0.614000025,0.059674682,0.073427383,0.01364424,0.019819445,-0.048072997,-0.013826729,0.048188886,0.046891276,0.021519939,-0.006305723,-0.0717999,-0.62305367,-0.052419439,-0.265943929,0.151843544,-0.132153317,-0.17402349,-0.222893832,-0.060666909,-0.015873152,0.692587449,0.246192892,0.157279159,#DIV/0!,#DIV/0!,2.012793269,1.052503241,2.267227175,0.66953071,pre
-4.774392573,2.18882195,-0.057833406,0.374075131,1.621245338,0.13536425,0.085502295,-0.001929438,0.016260217,-0.049695117,-0.031342321,0.029256855,0.094700321,0.255361186,-0.022775872,-0.064831858,0.557224,-0.052092556,0.474712884,0.959199794,-0.166597532,-0.191983589,-0.194485779,-0.057253342,-0.013417597,0.162310048,1.972571965,-0.167168633,#DIV/0!,#DIV/0!,-0.03803086,0.565642714,-3.504847168,-1.488711235,pre
-0.983650876,-1.218700321,0.134879357,0.015540505,0.349477645,0.104129512,0.089311291,-0.003865799,0.032211968,-0.054330066,-0.026083906,0.016852082,0.050141734,0.153271494,-0.041790063,-0.016110595,0.508821653,-0.084207166,0.58637413,0.391620759,-0.183007968,-0.187457527,-0.214554939,-0.072122503,-0.04069308,1.139431944,0.729803832,-0.093457861,#DIV/0!,#DIV/0!,0.443865856,0.432643943,1.575809624,-0.96705139,pre
-1.36516297,1.852812912,0.274238949,-0.407887087,-0.370109949,-0.00036248,0.026241942,-0.002014073,-0.03999689,-0.04865193,-0.027432139,0.014158735,-0.019020508,0.142432253,-0.048142526,0.013028524,0.47153363,-0.122122662,-0.309396559,-0.170003064,-0.24171588,-0.197131768,-0.242802603,-0.057181324,-0.008858527,1.072803142,0.746084603,-0.095344011,#DIV/0!,#DIV/0!,0.298527078,0.754366524,2.267227175,0.89519949,pre
0.5423975,-1.635590978,0.380751215,-0.199451372,-0.02994425,0.009134562,0.031056932,0.008576625,-0.026797674,-0.047602541,-0.007328523,0.000221518,-0.018119205,0.023020577,-0.077377311,0.004836797,0.112927621,-0.070221969,-0.683138452,-0.875353902,-0.202892734,-0.197375642,-0.24714331,-0.07014626,-0.028337095,0.26845481,0.981041924,-0.044691232,#DIV/0!,#DIV/0!,0.394204967,0.283613826,1.11486459,0.780849671,pre
0.5423975,-0.561747193,0.417668537,-0.355361028,-0.09081295,0.01391404,0.04007876,0.005989912,-0.002816545,-0.049215447,-0.042727767,0.00021972,-0.039496874,0.116200406,-0.079216035,-0.030078905,0.517994114,-0.078608045,0.123759712,0.395034151,-0.17846462,-0.191392151,-0.215663261,-0.097099335,-0.059083547,0.77382251,-0.022104365,0.325382768,#DIV/0!,#DIV/0!,1.929388013,0.43531836,1.11486459,-0.519308569,pre
0.5423975,0.444638992,0.498674616,-0.223456407,-0.213074655,0.033964234,0.037956687,0.00160906,-0.022504751,-0.040925135,-0.019087371,-0.006956624,-0.013079783,-0.098310097,-0.088234851,-0.035578877,-0.475195473,-0.073798356,0.024906113,0.080212015,-0.173727223,-0.20784469,-0.233179841,-0.088944099,-0.019205369,0.424374595,0.968365921,-0.365300025,#DIV/0!,#DIV/0!,0.58760015,0.483106306,1.11486459,0.850262224,pre
0.5423975,0.24170298,0.346068164,0.189066824,1.346391751,0.136944343,0.077928056,-0.003320902,0.042958898,-0.036551622,-0.007679656,0.002599528,0.038415312,0.030580086,-0.022128155,-0.045521216,-0.117234627,-0.095504953,-0.022104911,0.786044503,-0.200329348,-0.191864538,-0.18933487,-0.100745196,-0.041307009,-0.170939792,0.441732751,-0.018913066,#DIV/0!,#DIV/0!,1.077849288,0.404990015,2.306428148,-1.377432612,pre
0.5423975,1.180908746,0.397025243,-0.030517536,-0.097732039,0.005280474,0.033031715,0.015470375,-0.009705769,-0.02899656,-0.000598299,-0.00395661,-0.069777816,-0.045575087,-0.110168123,-0.059386506,-0.077999721,-0.143975422,-0.198082595,-0.316246489,-0.249250854,-0.177403008,-0.202057861,-0.073031993,0.011656766,0.030558646,1.087908323,-0.307974081,#DIV/0!,#DIV/0!,0.028292545,0.29655538,-0.09930725,-0.692021328,pre
0.5423975,0.556116964,0.118999809,0.049001409,0.722349046,-0.002870004,0.027866896,0.020342197,-0.017531273,-0.02570961,0.005153473,-6.5618E-05,0.015260414,-0.342267351,-0.088181533,-0.066462341,-0.045462565,-0.039569071,0.071045812,-0.584909332,-0.152506569,-0.171611479,-0.193067736,-0.066492065,-0.006288719,0.25920372,0.467139085,1.447820299,#DIV/0!,#DIV/0!,1.845675383,0.273495111,2.036754658,-2.1198776,pre
0.5423975,-0.561747193,0.072019694,-0.030777295,-0.105252348,-0.017961595,0.020319618,0.030375882,-0.050232405,-0.027176928,-0.004056777,0.008164756,-0.013397016,-0.111009117,-0.065015539,-0.051567697,-0.467939411,-0.068699439,-0.279003948,-0.081328341,-0.168264997,-0.151680516,-0.170786303,-0.083153399,-0.02898695,0.318074718,0.469884807,-0.403907502,#DIV/0!,#DIV/0!,-0.121681087,0.257511524,-2.52765093,-2.022165045,pre
0.5423975,-0.837499048,0.364678475,-0.418166387,-0.701417611,0.0595826,0.043181615,0.009929956,-0.035185984,-0.037604211,0.013445424,0.024889492,-0.007885589,-0.007277635,-0.047979283,0.007109068,-0.839867332,-0.138980032,-0.993576754,0.4262866,-0.240859067,-0.147643395,-0.16862264,-0.0618741,-0.018076186,-0.095840103,0.225958073,1.217825395,#DIV/0!,#DIV/0!,0.262954564,0.286607194,-0.40285021,0.184100858,pre
-1.47331508,0.268681524,-0.009006958,0.156153219,0.29720635,0.028485721,0.032519835,0.010309554,-0.024191116,-0.034189109,-0.031660631,0.026324963,0.114765186,0.145706464,-0.033916895,-0.032298716,1.053400188,-0.06466137,-0.570859163,0.337871074,-0.183029552,-0.153250367,-0.156610339,-0.068663085,-0.017005363,-0.151119505,0.701927923,0.685272798,#DIV/0!,#DIV/0!,0.499178366,0.547342197,2.107834222,0.186925673,pre
#DIV/0!,0.523430537,-0.464239536,-0.352122027,-0.723029111,0.04417752,0.032586387,0.006273487,-0.000582045,-0.035139982,-0.008617529,0.017780473,0.018914588,-0.317422125,-0.070227232,-0.060691531,-0.575151766,-0.044896495,-0.249822825,0.126285134,-0.134898397,-0.152359621,-0.171159781,-0.07330638,-0.047414519,-0.970541013,0.227899201,0.136105617,#DIV/0!,#DIV/0!,0.663982943,0.366045863,-4.95599461,-0.980179459,pre
-0.72930948,0.581105892,0.080491706,0.05601231,0.82107785,0.081752951,0.05608387,0.003393782,0.012271133,-0.034085183,-0.033101843,0.012526244,-0.025344729,0.119447779,-0.085892425,-0.078931053,0.326277114,-0.096192793,0.056013649,-0.278902126,-0.177611223,-0.162814648,-0.1881395,-0.080923236,-0.031618665,0.575006399,2.008571094,0.82438802,#DIV/0!,#DIV/0!,-0.470861702,-0.12089794,-2.52765093,0.784952193,pre
-0.72930948,-0.586839902,0.123375232,-0.253601455,-1.047312471,0.145630502,0.088899762,0.008428121,0.039518087,-0.040366042,-0.03311479,0.006773635,-0.069565694,-0.008928452,-0.104001253,-0.01652048,0.317956683,-0.067068917,-0.805499531,-0.131340667,-0.156568879,-0.142539341,-0.189080929,-0.065191336,-0.041772832,0.323447771,0.232002774,0.983385576,#DIV/0!,#DIV/0!,0.077410658,0.427552567,2.028137745,-2.029434539,pre
-0.72930948,-0.679137327,0.030581308,-0.409574087,-0.22045987,0.000387011,0.02358364,0.001862231,-0.03972034,-0.039228495,-0.01035026,0.00110569,-0.020194081,0.105179773,-0.105854151,0.002293834,-0.047793507,-0.047854639,0.340481739,0.224503471,-0.134749158,-0.131109783,-0.163426213,-0.065898674,0.001989879,0.758042004,1.325703371,0.918653832,#DIV/0!,#DIV/0!,-0.699292687,0.018108091,-2.46395765,-1.868299557,pre
-0.72930948,-1.845957417,-0.040713135,0.022987901,0.517769634,0.058885715,0.048804253,0.008538105,-0.028523542,-0.039690186,-0.017797342,0.002279498,0.034722833,-0.142247761,-0.086103417,-0.077654433,-1.068491169,-0.120526733,0.107566935,-0.117440329,-0.21817458,-0.120440534,-0.164355671,-0.075775885,-0.010874482,0.077502399,1.56536166,0.22813936,#DIV/0!,#DIV/0!,-0.599357345,-0.159695004,-0.32886485,-0.642354414,pre
-1.36516297,-0.86679746,-0.010447382,-0.390330358,-0.660536115,-0.057024998,0.007574491,0.005944481,-0.075218934,-0.033320878,-0.027828889,0.008233265,-0.029935801,-0.023092795,-0.100090296,-0.076924513,-0.072098714,-0.102855776,-1.032492976,-0.447848518,-0.179690897,-0.123182198,-0.184359291,-0.059925579,-0.015986482,0.174859003,0.84995776,1.849597708,#DIV/0!,#DIV/0!,0.206060357,-0.16833704,-0.105384885,0.840753606,pre
0.5423975,-1.449055352,-0.117827121,-0.554170574,-0.458655448,-0.015747611,0.021517395,0.014291754,-0.028373248,-0.042849037,-0.041406912,0.001436577,-0.006701216,-0.056159233,-0.072745735,-0.051595792,-0.524133209,-0.076035206,0.165932276,-0.012992468,-0.144361815,-0.119354178,-0.171745474,-0.071374238,-0.035634163,0.079818703,0.474164695,0.123191327,#DIV/0!,#DIV/0!,0.585527368,0.373436083,0.749512375,0.572930524,pre
3.343458813,-2.357492327,0.014492804,-0.254841602,-0.272600493,0.036907082,0.021503407,-0.013921397,-0.043072077,-0.0530874,-0.030386843,-0.030011313,-0.064166425,0.255822687,-0.139347667,-0.027832772,0.578094366,-0.151680271,-0.765838304,-0.053166695,-0.227928221,-0.124052059,-0.156837551,-0.092606224,-0.063450118,0.569526909,1.277360816,-0.046682487,#DIV/0!,#DIV/0!,-0.406719746,0.114818161,-3.494607488,-0.473036927,pre
2.398289886,-0.4098067,-0.093540364,-0.188548548,0.177863586,0.105246005,0.063358769,-0.015638118,0.022450254,-0.054774065,-0.025546031,-0.017990657,-0.056083105,-0.140579949,-0.101441644,-0.114295032,-0.829221928,-0.091083441,0.393011612,-0.233572115,-0.182691529,-0.139829514,-0.177875654,-0.07745215,-0.03192739,1.018163734,1.173460873,1.137470656,#DIV/0!,#DIV/0!,0.440658269,0.291163417,1.636734964,-1.309595211,pre
4.44891074,-0.067430259,0.019363141,0.113777036,0.107675134,-0.082626021,-0.008134039,-0.014827427,-0.056755887,-0.054966338,-0.015898059,-0.024951184,-0.122376421,-0.128994659,-0.125272087,-0.059369766,0.416835602,-0.102129644,-0.775085906,-0.189795002,-0.178355988,-0.125921874,-0.160772226,-0.068391574,-0.036636779,0.816121976,0.205012724,0.025610725,#DIV/0!,#DIV/0!,0.707243902,0.405227584,1.11486459,-1.556367346,pre
1.755180324,0.77003826,-0.058323605,-0.06453161,0.187190766,0.065872294,0.041028959,-0.0105432,0.014235974,-0.058945474,-0.042164323,-0.029766914,-0.033001498,-0.156138749,-0.126433351,-0.099227137,-0.742262172,-0.117126836,0.091753248,-0.316588298,-0.16906165,-0.137791867,-0.171494774,-0.063652845,-0.027932562,0.757825344,1.312800526,0.598692276,#DIV/0!,#DIV/0!,1.687319928,0.564618961,-2.528817773,0.173301565,pre
-0.503914619,-0.266793717,0.026815725,-0.11794014,-0.197037862,0.025393243,0.024356701,-0.00899604,-0.051556527,-0.050892224,-0.046126043,-0.012618979,-0.044387042,-0.164748296,-0.087545514,-0.136961124,0.091257926,-0.160552085,0.229047622,-0.094642107,-0.220425985,-0.116351906,-0.140866074,-0.063978661,-0.030363777,0.710602353,1.167649423,-0.231083757,#DIV/0!,#DIV/0!,-0.002506468,-0.034102167,-0.524634282,0.107258726,pre
-2.860143038,-0.397989573,-0.051837093,-0.224615704,-0.778390444,-0.016254314,0.005523126,-0.006086134,-0.056349765,-0.050235016,-0.039985017,-0.010289021,-0.002668611,-0.252064864,-0.073343782,-0.121321743,-0.785150955,-0.068288534,0.127215242,0.367512895,-0.14955853,-0.087497621,-0.094579083,-0.06630519,-0.070526353,0.660260233,0.436553238,1.331611194,#DIV/0!,#DIV/0!,0.505454294,-0.259618932,-0.560252284,-1.196816796,pre
-4.37990888,-1.921719223,0.140731553,-0.514512301,-0.744856443,-0.012244695,0.007055176,-0.003569873,-0.053451129,-0.04843035,-0.037875712,-0.01406689,-0.078995744,0.304010762,-0.125577852,-0.068333052,0.95958788,-0.134547236,-0.00333639,0.397373514,-0.193955817,-0.075051047,-0.090557856,-0.050521185,-0.051211307,0.999148192,0.186934137,2.894151629,#DIV/0!,#DIV/0!,0.389956244,0.227717042,-1.292876005,0.00760476,pre
-5.087052704,-0.291801624,-0.175588582,-0.245555745,-0.727127412,-0.072010312,-0.010527212,0.009309526,-0.086453735,-0.050335948,-0.038348841,-0.022921298,-0.035454614,0.337743277,-0.114423163,-0.062535823,1.2999762,-0.035461536,0.615766004,-0.206040831,-0.11404522,-0.092611114,-0.123107732,-0.051240465,-0.034675012,-0.091642284,1.388594287,-0.396373966,#DIV/0!,#DIV/0!,0.012599479,0.337071389,1.11486459,1.294313669,pre
-4.329267343,0.69252691,-0.245797061,-0.360709228,-0.296373045,0.016109539,0.022639724,0.016450699,-0.01990222,-0.050984842,0.001291503,-0.002899445,-0.038061449,0.15277793,-0.048117348,-0.044352354,0.332031589,-0.129476303,-0.274886385,-0.066735767,-0.200541491,-0.095476533,-0.110452287,-0.059672276,-0.039399049,0.165189772,1.474442638,0.880900199,#DIV/0!,#DIV/0!,-0.190688622,-0.127997896,1.11486459,-1.059354034,pre
-2.249075281,-0.578807152,0.150615354,-0.367195678,-0.378624125,0.012289265,0.013308419,0.01337256,-0.055625704,-0.04976089,-0.030057184,-0.019743825,0.036098027,-0.169402575,-0.080493726,-0.134057885,-0.660149127,-0.157847906,0.27042964,0.383610991,-0.227940065,-0.091010592,-0.078330871,-0.079230344,-0.04577357,0.484871668,1.109819064,0.823900577,#DIV/0!,#DIV/0!,0.139601156,-0.372271095,-2.165337533,-1.387775855,pre
-0.32147932,-1.840669319,0.266927402,-0.276599666,-0.555892044,0.05763984,0.029563465,0.003189483,-0.030117253,-0.048818573,-0.020414382,-0.043850305,-0.073381943,-0.131739273,-0.125714406,-0.030479989,-0.071994985,-0.10992447,0.381621751,-0.600369721,-0.195825393,-0.126599631,-0.115844852,-0.095742048,-0.058895161,1.025971337,1.33403685,-0.315790243,#DIV/0!,#DIV/0!,-0.468197134,-0.077445162,-6.1039063,-1.380712651,pre
-2.74502206,-0.227379083,0.131756882,-0.049788536,-0.153859138,-0.042121955,-0.01304986,-0.011573085,-0.095443778,-0.061124889,-0.038745035,-0.068692808,-0.05592762,-0.015212284,-0.189873741,-0.106648183,0.80452626,-0.128142968,0.6484023,0.174198119,-0.247310645,-0.13914293,-0.115090669,-0.104284668,-0.052620582,0.925589758,0.620123725,0.082617381,#DIV/0!,#DIV/0!,-0.131148814,-0.219786261,1.220279129,-0.890543964,pre
-1.36516297,-1.157538074,0.137450666,-0.459929747,-0.807300165,-0.048723988,-0.021488835,-0.023066693,-0.082163209,-0.063188198,-0.046431108,-0.054474211,-0.009015801,-0.076190002,-0.117967033,-0.059880606,0.402969941,-0.127758385,0.13816378,0.053828998,-0.224610942,-0.131367474,-0.11632614,-0.114367435,-0.065512517,1.565686317,1.820021997,1.013118303,#DIV/0!,#DIV/0!,0.119864925,0.262668229,-3.44209087,-2.398693771,pre
-2.00101646,-3.001019001,0.030579,-0.168581629,-0.13175137,0.070165861,0.01474353,-0.01923625,-0.036664072,-0.059209136,-0.040085928,-0.044332617,0.029346034,0.155648998,-0.109554034,-0.091091654,0.817810057,-0.194366578,-0.186773716,0.567514293,-0.289028731,-0.128163058,-0.07283632,-0.11320618,-0.048693118,1.01574094,1.210894983,0.030470159,#DIV/0!,#DIV/0!,-0.261242841,-0.329748157,-3.502254685,-0.884989885,pre
0.71540141,0.333047111,0.013794802,-0.399851197,-0.038691909,-0.062105893,-0.028248769,-0.014082103,-0.059104623,-0.063209355,-0.028649404,-0.048587506,0.009271417,-0.211522736,-0.126048035,-0.117592096,0.085727804,-0.129045535,0.308607837,-0.234037027,-0.241449327,-0.116868182,-0.075801576,-0.097794648,-0.045095687,0.254608078,1.098243959,0.103406374,#DIV/0!,#DIV/0!,-0.795405553,-0.023265393,0.13866501,-0.134820559,pre
1.771348694,-0.866729459,0.169036362,0.054736165,-0.232436897,-0.033478284,-0.025547652,-0.006589613,-0.080498002,-0.063886347,-0.013302105,-0.062793058,-0.052841367,-0.393605939,-0.165246103,-0.111995976,0.134749273,-0.119266181,0.534530744,-0.274108052,-0.198237582,-0.101738389,-0.07175744,-0.086190388,-0.053426368,0.88883575,0.850073674,-0.002565703,#DIV/0!,#DIV/0!,0.378552601,0.005444063,-2.895998358,-2.536593116,pre
-4.547127678,-1.561731338,0.043515488,-0.285446876,0.106906532,0.02260099,0.001096882,-0.00626685,-0.056364307,-0.060082706,-0.033128649,-0.05915497,-0.006333423,-0.042911615,-0.144028866,-0.082087131,-0.102353213,-0.170392132,0.28230775,-0.735914692,-0.255291967,-0.090208681,-0.068448767,-0.086683733,-0.046143192,1.196908187,1.812848959,0.348837852,#DIV/0!,#DIV/0!,1.24491809,-0.03668151,-2.703948566,-0.640033168,pre
-2.956239295,-1.075183763,-0.315281475,-0.404856303,-0.582834855,-0.134979718,-0.068123979,-0.010585382,-0.127638594,-0.057997958,-0.004161864,-0.042659505,-0.02760934,-0.257237059,-0.145037086,-0.163357691,-0.768941893,-0.144824946,0.192568315,-0.365483953,-0.22615427,-0.09239202,-0.078765379,-0.094803615,-0.084441477,0.368343096,1.338691331,0.196203443,#DIV/0!,#DIV/0!,-1.039412671,0.100798878,-4.840479613,-0.891191461,pre
-2.636955382,-1.768129886,-0.104813732,-0.366483372,-0.984829295,-0.033434201,-0.028375534,-0.011081893,-0.070407879,-0.065967945,-0.033494187,-0.067675898,-0.147312193,-0.10369524,-0.200183743,-0.112194451,0.167387065,-0.263033927,-0.059579254,0.423764478,-0.333628665,-0.081880549,-0.056840522,-0.108526041,-0.096084798,0.7446873,0.808414285,0.967466904,#DIV/0!,#DIV/0!,-0.038047978,-0.213406892,-1.69583706,-0.200233114,pre
-0.72930948,-0.57918011,-0.234428418,-0.585546053,-0.579691312,-0.071122725,-0.032248872,-0.002222269,-0.090172788,-0.05633037,-0.025670014,-0.051780981,-0.051427483,-0.043267978,-0.168475314,-0.046145381,-0.186006831,-0.090386139,0.261977901,-0.75178663,-0.175481829,-0.076654172,-0.073546807,-0.092353224,-0.068738956,0.270428263,1.098705864,2.035169014,#DIV/0!,#DIV/0!,1.61563785,0.160543705,-1.10817933,-0.251502764,pre
-1.36516297,-0.858712436,-0.376039209,-0.07720221,0.366585981,-0.000705185,-0.007327623,0.000852557,-0.064216444,-0.0643737,-0.029147334,-0.048925641,-0.09331427,-0.007220207,-0.131329844,-0.065932102,-0.542504203,-0.136951662,-0.034260759,0.381962127,-0.218740402,-0.043407895,-0.011331008,-0.088147139,-0.059736588,0.236975805,0.874795271,0.047140057,#DIV/0!,#DIV/0!,-0.25554842,-0.088280896,-3.120726307,-1.965448268,pre
0.5423975,-2.867940319,0.101043619,-0.398627515,-1.240586244,-0.008169166,-0.031524423,-0.000850687,-0.084507635,-0.051400482,-0.025242,-0.044892989,-0.128534601,0.05819537,-0.154114413,-0.081626961,0.434393441,-0.134774481,0.27341602,-0.160605412,-0.181904195,-0.066307123,-0.036930856,-0.071670513,-0.048109423,1.08850737,0.884648163,0.027502205,#DIV/0!,#DIV/0!,-0.110158774,-0.137269875,2.497699692,-0.373057826,pre
0.5423975,-1.012173625,0.145767023,-0.252732002,-0.429940487,0.009639509,-0.003734736,0.006825869,-0.044116185,-0.047223597,-0.016496869,-0.027331771,-0.052057169,-0.140540886,-0.136550236,-0.117283398,-0.27129721,-0.15340012,-0.261967947,-0.33368694,-0.22407411,-0.038223726,-0.026358342,-0.072465043,-0.060975018,0.570558535,0.615475808,0.201101055,#DIV/0!,#DIV/0!,0.448048956,-0.464640774,-3.967844486,-0.192908128,pre
#DIV/0!,-0.827124982,0.175289724,-0.132787651,-0.161681163,-0.008703384,-0.015315618,-0.005194294,-0.062885717,-0.046196339,-0.011664069,-0.035752977,-0.09081833,0.3520387,-0.137520508,0.021207858,0.782981008,-0.12724876,0.002316818,-0.094430659,-0.216895234,-0.03524488,-0.003536132,-0.079679743,-0.063747135,0.122638035,0.76029922,0.405813238,#DIV/0!,#DIV/0!,-0.956065364,-0.318311881,-0.459299243,-0.952658496,pre
0.5423975,1.246928393,-0.014722896,0.116908199,0.887510401,-0.067236656,-0.04077256,0.009064016,-0.111753515,-0.051548504,-0.030033519,-0.041026078,0.032776754,-0.169677867,-0.131311693,-0.11121271,-0.809774353,-0.182092112,-0.645040009,-0.099078922,-0.278837607,-0.059508539,-0.003669716,-0.112989865,-0.061735153,0.573280383,1.399555349,0.083222018,#DIV/0!,#DIV/0!,-0.196392598,-0.273988699,-1.31347909,-2.965349383,pre
#DIV/0!,-2.192288052,-0.340599373,-0.421990584,-0.858020429,-0.121228978,-0.074096623,-0.019485108,-0.140014029,-0.053648736,-0.00950479,-0.041506249,-0.001212999,-0.067778811,-0.125467271,-0.042453585,-0.658170488,-0.131170532,-0.233647488,-0.373644651,-0.252077967,-0.066401712,-0.037032477,-0.120944055,-0.059599385,1.512088114,0.990049908,2.849239933,#DIV/0!,#DIV/0!,-0.799086258,-0.086910219,-2.438370345,-0.047213714,pre
0.5423975,-0.779552938,-0.30965982,-0.491375711,-0.815597147,-0.179963465,-0.0885362,-0.028296384,-0.142757703,-0.05666791,-0.009900891,-0.06441704,-0.06832794,0.119760231,-0.172641017,0.001782647,-0.058263076,-0.168080043,-0.094106297,0.186623902,-0.314001148,-0.089577839,-0.027960602,-0.119942211,-0.048458578,1.362293611,0.98495453,4.89166102,#DIV/0!,#DIV/0!,0.273987641,-0.38477291,-2.707646927,-1.648502005,pre
3.121843399,-1.723445988,-0.311218201,-0.373867961,-1.473879338,-0.104431151,-0.061160232,-0.024444442,-0.103606315,-0.059498597,-0.006405991,-0.053795249,-0.0513411,-0.128149269,-0.129004992,-0.059355972,-0.342437555,-0.153566208,-0.115954452,-0.660190443,-0.289023815,-0.061373817,-0.023800027,-0.112215312,-0.067526522,0.968297424,1.388939587,2.343189234,#DIV/0!,#DIV/0!,0.024616018,-0.231300773,-1.92056501,-1.627072972,pre
-1.027595043,-0.16005872,0.017015323,-0.098145887,0.186599514,-0.134160562,-0.067849669,-0.021286298,-0.131829731,-0.061973511,-0.023849186,-0.07374056,-0.048544799,0.027717657,-0.209493059,-0.043375022,0.599910272,-0.129282967,0.085848188,-0.381253372,-0.275689024,-0.082552912,-0.008416794,-0.13055736,-0.07385243,1.275794046,0.87004682,0.537779457,#DIV/0!,#DIV/0!,-0.191751155,-0.121205494,-1.538984933,-0.341245129,pre
-5.618268372,-0.403317571,-0.158941016,-0.265205278,-1.067615674,-0.199655027,-0.081803141,-0.022479482,-0.137629027,-0.056115149,-0.041355065,-0.036156751,0.00566603,-0.169377434,-0.120213516,-0.106489727,-0.38223509,-0.102946452,0.056203003,0.044865941,-0.199429549,-0.064126114,-0.010918242,-0.127138277,-0.089577376,0.532413456,0.410230916,1.473473852,#DIV/0!,#DIV/0!,-0.695497375,-0.090726763,-2.292727612,-1.243251193,pre
-6.556149751,-0.077229739,-0.399931037,-0.007248419,-0.691370495,-0.087226112,-0.032089237,0.000406754,-0.087227845,-0.057559986,-0.013002606,-0.056054823,-0.097128846,-0.035634913,-0.203178691,-0.069419433,-0.261584239,-0.123061343,0.620838431,-0.391463328,-0.248893026,-0.074643321,-0.0109071,-0.12248074,-0.080067157,-1.285100913,0.878287706,2.221753413,#DIV/0!,#DIV/0!,-0.166686542,0.049548715,1.11486459,0.029420243,pre
-3.27272344,-0.33889503,-0.207990942,-0.137351383,-0.266521712,-0.050994224,-0.021949755,0.003642849,-0.110617009,-0.066026728,0.014402688,-0.056658205,-0.087397272,0.250282612,-0.183532033,-0.056952056,0.703943842,-0.222849006,0.115095877,-0.876118593,-0.332673182,-0.07741971,-0.048712732,-0.119259669,-0.076409623,0.525796449,0.868004612,0.430867423,#DIV/0!,#DIV/0!,-0.416429332,-0.453382681,-0.979031503,-1.517293424,pre
2.309043663,-0.733299718,-0.372305999,-0.178994284,-0.359081399,-0.049830674,-0.024053458,0.002218958,-0.096712045,-0.067788975,-0.019946557,-0.045154783,-0.080915896,-0.184149059,-0.168542142,-0.204554929,-0.56369426,-0.203309822,-0.17574405,-0.606915903,-0.30986504,-0.103305281,-0.044657238,-0.132507382,-0.08483939,0.969502036,0.980513689,0.37629443,#DIV/0!,#DIV/0!,-1.227675106,-0.204845485,-5.408038042,-0.102719239,pre
-4.484213995,-1.319495106,-0.065562167,-0.450697784,-0.644460881,-0.011133174,0.005768223,0.003811611,-0.071029706,-0.066167074,-0.045670459,-0.072577942,-0.029959261,0.005315794,-0.212315318,-0.103778182,0.665793927,-0.226631073,-0.275550021,0.049842117,-0.344013257,-0.082531113,-0.004873734,-0.110713979,-0.068306755,1.013254337,2.088909187,3.027894997,#DIV/0!,#DIV/0!,-0.7802198,-0.386237109,-1.774424124,-1.131027119,pre
-5.177128951,-0.102756175,-0.098186616,-0.091076398,-0.43615226,-0.03657554,-0.025717702,-0.024266949,-0.090798966,-0.077578091,-0.040295671,-0.070165863,-0.02655188,-0.085823302,-0.17507428,-0.146667927,0.274243839,-0.203045764,-0.327847959,-0.085395686,-0.313691131,-0.111058897,-0.052376586,-0.136129415,-0.091934213,1.70590597,1.264493204,0.264949905,#DIV/0!,#DIV/0!,-0.257745129,-0.07860991,-3.690657813,-1.340346046,pre
0.5423975,-0.715703964,-0.171547096,-0.097764571,-0.051936752,-0.121279454,-0.050417251,-0.00464383,-0.129817827,-0.07289431,-0.04720115,-0.074844632,-0.033177809,0.029974227,-0.14817789,-0.092886072,0.275537005,-0.17543743,-0.374687478,-0.17041883,-0.281830868,-0.11528892,-0.035330479,-0.139658009,-0.102043568,1.709746215,0.662161599,0.379188935,#DIV/0!,#DIV/0!,0.609094455,-0.042184552,0.173331083,-0.761634249,pre
-0.969386935,0.015398723,-0.114194541,-0.296768503,-0.423351166,-0.031070838,-0.006820494,-0.017065052,-0.066086396,-0.069635075,-0.030447793,-0.087932099,-0.130279226,-0.030031864,-0.211154602,-0.114514548,0.222953608,-0.277920252,-0.193404238,-0.104543616,-0.382407919,-0.102208649,-0.000841736,-0.115219457,-0.051517862,1.143945004,1.880832781,1.039714925,#DIV/0!,#DIV/0!,-0.231440148,-0.599598158,-1.266778374,1.21542956,pre
-1.47331508,0.851152238,0.050611561,-0.338745333,-0.222268512,-0.096368507,-0.034027781,-0.022600969,-0.095010636,-0.067854389,-0.006847316,-0.058148429,-0.066478868,0.04251105,-0.127815803,-0.025020952,-0.035580758,-0.183486297,-0.779823965,-0.760308229,-0.305895513,-0.070316979,-0.025194394,-0.104024763,-0.088458724,1.067266746,-0.024557723,0.354178615,#DIV/0!,#DIV/0!,0.607897382,-0.085256231,1.11486459,0.265995158,pre
0.5423975,-2.392999661,0.004687863,-0.585561101,-1.463065527,-0.025365655,-0.018736592,0.001174199,-0.088774474,-0.048876016,-0.024301959,-0.055622124,-0.150496795,-0.275567221,-0.133732436,-0.148984674,-0.71526474,-0.132917552,-0.33653129,-0.932564819,-0.221054311,-0.051209534,-0.003205468,-0.091376844,-0.072879255,1.432207208,1.160145325,2.297279504,#DIV/0!,#DIV/0!,0.121964175,0.224430477,-7.26071978,1.199694661,pre
0.5423975,-0.018848844,-0.104666009,-0.17907517,-0.52890383,-0.00161562,-0.018446909,-0.004731905,-0.084337831,-0.04391885,-0.057559765,-0.056907211,-0.049491449,-0.140597968,-0.144030744,-0.073954303,-0.34746987,-0.098166092,-0.06125595,-0.396812444,-0.195929828,-0.055680009,-0.00716889,-0.099522966,-0.085746646,1.108987314,1.892734989,0.538742773,#DIV/0!,#DIV/0!,-0.453288442,-0.417616204,-5.196898551,-2.378035903,pre
0.081011057,-0.931688642,-0.228379094,-0.242540616,-0.776826162,0.063994264,-0.009233175,-0.022984213,-0.074990149,-0.067676881,-0.023028084,-0.061519081,-0.02473069,-0.107175976,-0.131679715,-0.018719142,-0.422384456,-0.090472435,0.128830041,-0.017763759,-0.203094851,-0.026530509,0.05390777,-0.076685628,-0.047037653,0.151908109,1.038170165,1.96743939,#DIV/0!,#DIV/0!,-0.207074066,-0.519060124,-6.038432898,0.004189764,pre
-1.266366298,-1.023862279,-0.085152419,-0.305020826,-0.141315055,0.058585352,-0.02858973,-0.06688723,-0.055164632,-0.076315903,-0.034784837,-0.083334838,-0.070522493,-0.241610548,-0.146688803,-0.021369345,-1.152949809,-0.056123326,-0.393666636,-0.816077516,-0.176973433,0.011264881,0.042881051,-0.038778011,-0.02348124,1.162338924,1.206438958,1.467059565,#DIV/0!,#DIV/0!,-0.722225655,-0.062038151,-2.235369158,-2.102063359,pre
-4.921848393,0.30220282,0.110140759,0.017316728,-0.113222473,-0.04039253,-0.084209759,-0.022714581,-0.100443509,-0.070651726,-0.036997473,-0.080333229,-0.026221124,-0.297171624,-0.102076003,0.002752386,-1.260772779,-0.054551034,-0.37485211,-0.420913144,-0.173012882,0.037781547,0.080296204,-0.035662241,-0.047886303,1.099805273,1.433724167,-0.151497311,#DIV/0!,#DIV/0!,0.613778168,-0.380468668,-3.672513772,-0.880949994,pre
-1.10131228,0.82899381,0.066553614,-0.049958134,0.513353479,0.073161216,-0.061066391,-0.020170581,-0.067061674,-0.071175772,-0.049687393,-0.105033713,-0.012940403,0.034040802,-0.124760799,-0.012233029,-0.126356834,-0.063338891,0.036602684,-0.764878558,-0.148798772,0.022535401,0.06965649,-0.062079793,-0.052898846,1.318739805,0.743400761,0.586588746,#DIV/0!,#DIV/0!,-0.244031614,-0.100677478,-4.10611844,-2.331407835,pre
-1.36516297,-1.010704268,-0.301747638,-0.077424907,0.159894486,-0.08422683,-0.121831521,-0.069111052,-0.129088814,-0.086283481,-0.070682846,-0.098460704,-0.091182877,-0.160859204,-0.106734003,-0.050448092,0.283472348,-0.071810171,0.533738987,-0.995957842,-0.152452867,-0.01084337,0.044700249,-0.073533253,-0.052374252,-0.119895628,0.964922274,3.859781686,#DIV/0!,#DIV/0!,-0.323931052,-0.025498278,-2.235369158,-2.050193882,pre
-1.82022853,-0.396016003,0.080821385,0.040170101,0.69710146,0.050634223,-0.100028537,-0.126352232,-0.05750548,-0.17693236,-0.072796673,-0.188460525,-0.155681274,0.064550847,-0.182458702,-0.021168841,0.218676134,-0.081857167,0.529468399,0.206956455,-0.182844151,-0.031283064,0.07251257,-0.120609232,-0.0797428,0.181466428,1.712382094,-0.80303761,#DIV/0!,#DIV/0!,0.161600787,-0.383843821,-1.605191915,-0.718295358,pre
-2.339071346,-0.84845366,0.130879201,-0.089554684,-0.132894023,-0.02849005,-0.123902129,-0.121584932,-0.110249956,-0.162422688,-0.081906329,-0.203254967,-0.066926111,-0.326587018,-0.168276311,-0.107609747,0.29695332,-0.159897796,-0.431192398,-0.226989888,-0.231859226,-0.047640158,0.087570613,-0.10684048,-0.063218574,-1.053089898,0.738856581,-0.989180242,#DIV/0!,#DIV/0!,-1.060402716,0.036511301,0.17036624,-1.217809585,pre
-2.400121361,-0.660760285,0.019835637,-0.055063646,-0.019200749,-0.074295035,-0.112813345,-0.104502815,-0.085046377,-0.132058937,-0.098551401,-0.17115311,-0.15803151,-0.218668016,-0.150532387,-0.175640017,-1.551581048,-0.203692734,-1.059951021,-1.072111784,-0.244761391,-0.060765215,0.034779944,-0.124260633,-0.065691487,-0.36374774,0.98138489,-0.644520291,#DIV/0!,#DIV/0!,1.481449908,-0.503591122,-3.072927595,-1.920679326,pre
-0.09345599,-1.427098699,0.123304351,-0.191425319,-0.36556686,0.042549836,-0.061334958,-0.121664119,-0.031820047,-0.130126476,-0.088498366,-0.177412038,-0.114346598,-0.141576194,-0.24542942,-0.169176764,-0.278045205,-0.18979661,0.525078299,-0.248640099,-0.293007318,-0.100524637,0.018704342,-0.148114521,-0.087669736,0.368570131,0.518131514,0.84344557,#DIV/0!,#DIV/0!,-0.685656387,-0.411716742,2.036754658,-1.126276017,pre
0.5423975,0.21203415,0.286153965,-0.128925227,-0.283567413,0.084378549,-0.024274879,-0.119479116,-0.014854472,-0.117915362,-0.099074085,-0.171811513,-0.105012827,-0.187242724,-0.250467473,-0.160847745,-0.501346408,-0.18642474,-0.381365045,-0.302441478,-0.263114253,-0.116077287,0.006581919,-0.146123427,-0.06182334,0.714511154,0.553520816,0.016148847,#DIV/0!,#DIV/0!,0.100922826,-0.138596991,0.631311274,-1.792807606,pre
0.5423975,-0.475323956,0.336125179,-0.0789383,-0.93585554,0.072878923,-0.008586305,-0.114649437,0.024010812,-0.10026653,-0.11555245,-0.173596573,-0.253432358,-0.044477861,-0.297676284,-0.192750924,0.39148808,-0.186236797,0.197166201,-0.320504605,-0.258544797,-0.145310262,-0.012455979,-0.150042437,-0.081965105,0.059878122,0.315478107,0.4623757,#DIV/0!,#DIV/0!,-0.430356393,0.096427446,-0.51213471,-1.374303676,pre
0.5423975,-0.814285548,0.347256285,-0.332166071,-0.836828613,0.079966008,-0.009711595,-0.083806771,0.005993368,-0.092951609,-0.126556202,-0.17883702,-0.189034876,-0.245412363,-0.282476211,-0.284103111,0.158476134,-0.200079379,0.347231904,-0.105383083,-0.262299749,-0.154914665,-0.022682751,-0.167146849,-0.095458232,0.135899263,1.245502484,1.362227558,#DIV/0!,#DIV/0!,-0.416993543,-0.620165804,-0.61966661,-1.94487403,pre
0.5423975,0.757006406,0.393540565,0.030619851,0.214843618,0.052011091,-0.004303587,-0.062592347,0.013924859,-0.07887588,-0.096155284,-0.166725879,-0.134975688,0.008247784,-0.308125321,-0.201771152,0.415216747,-0.212577706,0.015073998,0.048607414,-0.256544581,-0.162399182,-0.013369983,-0.148306553,-0.066153605,-0.088186389,1.1607647,0.810439251,#DIV/0!,#DIV/0!,-0.68719959,-0.335264277,-2.975136917,-0.814900834,pre
#DIV/0!,-1.994130508,0.099408393,0.043143491,0.27834023,0.08602832,0.018839291,-0.043384585,0.023039026,-0.053994514,-0.050832838,-0.12666105,-0.104023144,-0.325553114,-0.197377075,-0.259238926,-1.739407805,-0.227566512,-0.712197848,0.444780706,-0.277141279,-0.122873454,0.030286058,-0.149082048,-0.084872432,-1.120545313,0.93012372,0.211045726,#DIV/0!,#DIV/0!,-0.586849112,-0.039654964,-2.438370345,-1.90948844,pre
0.5423975,-1.114674331,-0.125021149,-0.139633138,-0.238417683,0.069667009,0.035550217,-0.03348604,0.057701801,-0.034547451,-0.066079919,-0.11862288,-0.053774957,0.188215814,-0.188931131,-0.122270901,0.854391282,-0.269134849,-0.229292153,0.084386161,-0.3314939,-0.116040538,0.026781704,-0.129986461,-0.05557638,-0.978246328,1.405113223,-0.036668957,#DIV/0!,#DIV/0!,0.40090366,-0.335752103,-1.31912984,-0.235390979,pre
0.5423975,0.930049096,0.237556506,0.243558095,0.806271545,0.029989287,0.023780176,-0.00687612,0.036283882,-0.025154924,-0.067909667,-0.100272379,-0.109785065,0.243074165,-0.160691235,-0.088716258,1.256502869,-0.170472653,0.080159633,-0.077164135,-0.201778212,-0.100905288,0.03537821,-0.136882582,-0.079833852,0.627445881,0.748152137,0.209991401,#DIV/0!,#DIV/0!,-0.515309101,-0.226375894,-0.09930725,-0.965678645,pre
#DIV/0!,-0.297659398,0.175896103,-0.017582365,0.149259523,0.112386552,0.052151575,0.008033847,0.053275453,-0.011115127,-0.052240081,-0.10190908,-0.060036255,-0.311223115,-0.184221768,-0.185922352,-0.583179648,-0.203498276,-0.048707974,-0.663588554,-0.228888721,-0.099771395,0.009716178,-0.122709458,-0.066158115,0.458595523,0.503639566,1.653554054,#DIV/0!,#DIV/0!,-0.136358044,-0.157313565,-0.951517103,-0.825975269,pre
0.5423975,-2.419068046,0.150126463,-0.309987948,-0.608030703,0.049684688,0.031114276,0.009171008,0.034222876,0.001562386,-0.027238116,-0.087292299,-0.088265742,-0.123371109,-0.172852479,-0.14605089,-0.450100425,-0.233947776,0.070889011,-0.087107934,-0.270165072,-0.033686801,0.088690725,-0.113872936,-0.0558479,0.575318241,1.20839233,0.432969568,#DIV/0!,#DIV/0!,-0.311928067,-0.21977286,-0.852534056,-0.164815957,pre
0.5423975,2.281822635,-0.028669818,0.421749164,0.860413483,0.059354638,0.047335287,0.002496993,0.068432137,0.009774724,-0.029128239,-0.063796214,-0.03928666,-0.206146524,-0.126681392,-0.100395905,0.062165494,-0.164537769,0.196980074,0.776794883,-0.203172127,0.011014211,0.13040961,-0.069995371,-0.031693084,0.687893029,1.606063508,1.467782292,#DIV/0!,#DIV/0!,-0.241916698,-0.139799121,-0.124964474,0.093508263,pre
#DIV/0!,0.565780425,0.052012406,-0.003277535,-0.030856042,0.022433955,0.020924693,0.008735022,0.028209238,0.015470427,0.007122069,-0.084130798,-0.056175637,-0.192907198,-0.176328155,-0.087212434,-0.038277315,-0.212645154,0.247592775,-0.372918294,-0.212270807,0.015007619,0.103496881,-0.056287822,0.005766394,0.134950467,1.481261132,0.298295199,#DIV/0!,#DIV/0!,0.030848738,0.03405204,-0.09930725,-0.28719707,pre
0.5423975,1.077052591,-0.028003737,0.079755732,0.336185488,-0.004214899,0.021421541,0.023743668,0.034204189,0.019206271,-0.010809272,-0.06071763,0.022167898,-0.222592452,-0.112620667,-0.107872473,-0.530082694,-0.126142946,-0.209871616,-0.063849531,-0.15756008,0.033636626,0.122567728,-0.0836375,-0.022634046,0.63836978,1.065935397,0.24326209,#DIV/0!,#DIV/0!,-0.326072446,-0.221637113,-4.29317707,0.158664464,pre
0.5423975,0.757006406,0.007903107,0.250873284,0.902041491,0.098726392,0.065861831,0.033711187,0.083749825,0.02870599,0.041046567,-0.040018213,-0.016486048,-0.149025289,-0.112471023,-0.086346982,-0.256288405,-0.198383933,-0.808373739,-0.04906967,-0.229232503,0.029362772,0.144995891,-0.056858856,0.002782374,0.682646029,0.49198213,0.399133529,#DIV/0!,#DIV/0!,-0.437857532,-0.444527153,-2.865909578,-0.486639596,pre
#DIV/0!,-0.362465144,-0.045090974,-0.007997327,-0.007201995,-0.024664283,0.014133525,0.050944866,0.031590668,0.038994361,0.012033071,-0.049235923,-0.027439959,0.109078202,-0.16425548,-0.048453707,0.659207908,-0.128969383,0.439002885,-0.768043255,-0.160781398,-0.026439422,0.081300573,-0.04258516,0.022690384,0.391454788,2.203445318,0.283778479,#DIV/0!,#DIV/0!,-0.232972162,0.005567492,-3.05366104,-1.261839199,pre
-1.47331508,0.516626397,-0.06445945,0.237753207,1.038778056,-0.068177616,-0.000865117,0.056701932,-0.004079933,0.03430497,0.048424039,-0.032130623,0.059173941,0.05893795,-0.128326551,-0.046283287,0.801299929,-0.132774869,0.016190293,0.532708206,-0.182132248,-0.035243806,0.124866347,-0.04197101,0.011588747,0.230889857,0.971450128,-0.141823066,#DIV/0!,#DIV/0!,-0.620294425,-0.247552427,-3.316495738,-0.358827601,pre
-1.36516297,1.049040315,0.035017041,0.090532645,0.182233785,0.010418273,0.027609592,0.062733963,0.051186513,0.018112474,-0.01194537,-0.064410686,-0.102004189,-0.028402798,-0.220030765,-0.090086337,-0.788021113,-0.16707124,0.444870546,-0.404465612,-0.193442932,-0.030719734,0.077050806,-0.047541351,0.005871333,0.418038575,0.942130801,0.221411126,#DIV/0!,#DIV/0!,0.393184232,0.144688003,-1.536444148,-2.462456757,pre
0.5423975,-2.047131941,0.080236279,-0.107534946,-0.955715992,-0.02030123,0.002623268,0.046637562,0.030613047,0.013660809,0.023263164,-0.059397965,-0.08667412,-0.217215395,-0.177724002,-0.108366425,-0.052916806,-0.149067382,-0.4884026,-0.283200817,-0.196829392,-0.028876691,0.096013676,-0.065647613,-0.021017825,0.273720005,0.695252496,0.236458537,#DIV/0!,#DIV/0!,0.437559841,-0.079132832,-1.314256985,-1.560931297,pre
#DIV/0!,1.327978296,0.171561191,0.034552018,0.125873908,-0.11269474,-0.040419961,0.03397324,-0.034123371,0.003525078,0.037620422,-0.060615199,-0.010289723,-0.09474771,-0.151366233,-0.086135013,-0.193867837,-0.14192133,-0.459890396,-0.177107086,-0.202262503,-0.040650143,0.101751556,-0.050095137,0.017582799,0.190381505,1.428551647,0.58991881,#DIV/0!,#DIV/0!,-0.391963703,-0.419175971,-1.437425783,-1.422605791,pre
-3.27272344,0.281090557,0.020723242,0.3919237,1.720843263,-0.036425195,-0.018704753,0.025402168,-0.003763634,-0.001335082,-0.023776413,-0.068853544,-0.075915501,-0.283769543,-0.189363195,-0.126260688,0.584094985,-0.13377188,-0.213002049,0.189587877,-0.173229046,-0.022989272,0.109562917,-0.074213934,-0.034037163,0.14896461,0.436308157,0.326200669,#DIV/0!,#DIV/0!,-0.272771964,-0.246718762,-0.61966661,-0.213499408,pre
0.5423975,-0.1838488,0.271647829,0.01815464,0.838664521,-0.102097956,-0.043571753,0.028551984,-0.011505222,-0.010859541,0.005896798,-0.086643801,-0.092856161,0.115230589,-0.183374318,-0.062013253,0.445622161,-0.153922414,-0.102964562,0.17071418,-0.229355097,-0.033975096,0.101971364,-0.075361829,-0.00338077,0.128832595,1.281002083,2.230087449,#DIV/0!,#DIV/0!,-0.039272161,-0.173363247,-2.946056883,-2.464524522,pre
0.5423975,-0.834803754,-0.121366871,0.001050969,0.211353069,0.004133408,-0.006270987,0.038437061,0.022096986,-0.004395958,-0.022792007,-0.063765086,0.023975989,0.0390909,-0.115637314,-0.043270162,-0.20355589,-0.124505583,0.465237555,0.312124778,-0.150957146,-0.020958443,0.121923048,-0.061490632,-0.016871185,0.06922177,0.184201087,0.197349897,#DIV/0!,#DIV/0!,0.557228705,0.036054403,-2.688806733,-2.301916511,pre
#DIV/0!,-1.319375506,0.140232014,0.012150187,-0.162134201,-0.142231498,-0.058552479,0.048580477,-0.085769173,-0.003174299,-0.006207845,-0.077019496,-0.036261441,-0.285988012,-0.188057961,-0.117161133,-0.185737321,-0.232964086,-0.488188805,-0.184759677,-0.270100572,-0.030164721,0.100925286,-0.077214995,-0.032598603,0.314742976,1.021200569,-0.101042506,#DIV/0!,#DIV/0!,-1.014947033,-0.396375775,-0.40285021,-2.173056221,pre
0.5423975,0.969833825,0.062601515,-0.010219782,0.272774225,-0.091453125,-0.033338621,0.049017258,-0.049740472,-0.006976993,0.006471027,-0.080454345,-0.022293014,0.034447739,-0.169207704,-0.039137627,-0.651014768,-0.101109479,0.68521129,-0.202807229,-0.136202789,-0.036022065,0.081006405,-0.063692947,-0.03319499,0.782579472,1.144231419,0.120215945,#DIV/0!,#DIV/0!,-0.231387101,-0.112901031,0.173331083,0.001136946,pre
0.5423975,0.697498828,-0.026527328,0.096684668,0.581590353,-0.145111081,-0.075019686,0.048223359,-0.082770168,-0.018856367,-0.007222829,-0.080206482,-0.032942797,-0.259841954,-0.156043932,-0.15751084,-0.345547018,-0.151774827,0.53629773,-0.692043658,-0.178320827,-0.051783307,0.070417666,-0.090290822,-0.065865622,1.007948067,0.38847376,0.156848761,#DIV/0!,#DIV/0!,-0.485906534,-0.507663249,-2.991644812,-2.439519998,pre
0.5423975,0.565831684,-0.13259236,-0.007083034,-0.211775456,-0.083224964,-0.043126907,0.048740069,-0.048440515,-0.023330055,0.000633897,-0.08870897,-0.028808433,0.076915921,-0.182790852,-0.061504837,-0.059443001,-0.18371014,0.116925069,-0.588591217,-0.217929939,-0.055148607,0.057939685,-0.105575897,-0.058812617,0.941137284,1.569763097,-0.282690375,#DIV/0!,#DIV/0!,0.288034746,0.074180108,0.35600719,-0.498408795,pre
-0.411382735,-0.139443264,-0.101906044,-0.187421273,0.167453409,-0.179794781,-0.075641596,0.046975768,-0.078083338,-0.026030134,0.00326182,-0.074362032,-0.014015955,-0.200822338,-0.120393305,-0.099240749,-0.257818972,-0.167370477,0.216816143,-1.237623155,-0.225106677,-0.060490883,0.041268864,-0.092062775,-0.060163802,1.266932822,0.625410846,2.976083115,#DIV/0!,#DIV/0!,0.301083267,-0.132524443,2.267227175,1.113484597,pre
-2.876947405,-2.138474453,-0.262365521,0.01769644,0.555095134,-0.11311426,-0.071396497,0.033765803,-0.08189071,-0.026884149,-0.001959847,-0.10596654,-0.060093525,-0.102725907,-0.1831482,-0.103147814,-0.026614968,-0.12600037,0.737886722,-0.293431946,-0.187592475,-0.062864291,0.059038962,-0.0999907,-0.07077354,1.680117203,1.815992807,-0.247799986,#DIV/0!,#DIV/0!,-0.152224493,-0.454904678,-4.89984492,-1.808527404,pre
-3.520839216,3.378350631,-0.215194584,-0.056965227,0.416985888,-0.105882854,-0.064435007,0.023019684,-0.052051757,-0.03330369,0.000153758,-0.09416091,-0.077791931,-0.169722993,-0.135551789,-0.049588493,0.76924572,-0.109827237,-0.312787392,-1.262137449,-0.169275987,-0.039017132,0.065620664,-0.081301445,-0.079582457,1.805302913,1.095412958,1.223153398,#DIV/0!,#DIV/0!,1.07310362,0.674628396,0.510423008,-1.98490751,pre
-6.254181647,-0.303387541,-0.098933818,0.025918199,1.022108062,-0.112143659,-0.0764256,0.012393284,-0.07355144,-0.027368985,-0.025624243,-0.083061502,-0.045925017,-0.161890901,-0.125676462,-0.014407841,-0.365013736,-0.118116328,0.714237786,0.113975215,-0.202350792,-0.023513758,0.11224405,-0.079468273,-0.062557688,1.285290864,1.330966086,1.981735694,#DIV/0!,#DIV/0!,-0.328165075,-0.580792812,-1.157685757,-1.423487573,pre
1.17324873,-0.337395415,-0.085763601,-0.03325239,0.445521561,-0.065258944,-0.140805942,0.078501824,-0.089883014,-0.094014987,-0.043419039,-0.124595245,-0.071865336,-0.313819584,-0.142101478,-0.042140453,-1.361812615,-0.048055668,0.16038328,-0.860954349,-0.152252147,0.000999864,0.10868917,-0.059458613,-0.017393881,1.385883233,0.943667393,0.339377969,#DIV/0!,#DIV/0!,1.010924104,0.08356067,-0.560252284,-0.19024557,pre
2.166823888,-0.239644934,-0.230908228,-0.005992207,0.22079908,-0.118744638,-0.13383987,-0.014215694,-0.097394972,-0.099943267,-0.059559155,-0.113802854,-0.024783582,0.357911744,-0.123827088,0.080824495,1.298761505,-0.069421769,0.62945806,0.320449024,-0.169812322,0.050216516,0.14498943,-0.042945701,-0.012750167,1.146848711,1.895601991,0.105446714,#DIV/0!,#DIV/0!,-1.081337281,-0.401486585,-3.698170946,-1.484574198,pre
-1.575961734,1.070078564,-0.334616324,-0.068568952,-0.073535161,-0.014450513,-0.094433339,-0.028095328,-0.046340907,-0.089023563,-0.040287996,-0.120969998,-0.039512135,-0.03007601,-0.166333401,-0.009664213,-0.668759328,-0.056476749,-0.005201781,-0.659465381,-0.160118535,0.032220784,0.102762903,-0.03539844,0.017691411,-0.323301026,3.021350687,-0.855264069,#DIV/0!,#DIV/0!,0.164184868,0.424687206,2.102603949,0.777291219,pre
-3.48902766,-0.303314314,-0.512053579,-0.17562977,-0.241649827,-0.045562832,-0.079782441,0.00321591,-0.065899426,-0.072446401,-0.049478786,-0.121055977,-0.023785208,-0.148380728,-0.137940318,0.005562749,-0.391146039,-0.058385299,0.120269181,-0.361437479,-0.164998633,0.02707507,0.09485429,-0.064056935,-0.045714349,0.106113759,0.980685196,0.209222684,#DIV/0!,#DIV/0!,0.553231248,-0.497070846,-0.101596115,-1.926598102,pre
-0.09345599,0.293084054,-0.269776179,-0.127649566,0.214544876,-0.057954316,-0.07552987,0.050609446,-0.065504239,-0.059992099,-0.016839433,-0.114742158,-0.059951538,-0.026883055,-0.118526174,-0.078077844,-0.435293959,-0.128957465,-0.086757136,0.378243004,-0.184326844,0.020471334,0.141293688,-0.073887787,-0.024096805,1.467099497,2.635142222,0.544412617,#DIV/0!,#DIV/0!,-0.389486623,-0.065087461,-2.506865024,-0.99188467,pre
-0.220626688,-0.174753752,-0.159083987,0.149182585,1.103936274,0.037296982,-0.043115959,0.055276404,-0.026296086,-0.047206133,-0.020337167,-0.132297183,-0.042145457,-0.178875367,-0.17000617,-0.066048095,-1.604241702,-0.116843245,-0.72696471,0.051338529,-0.160809885,0.026806809,0.116854217,-0.052303002,-0.028330085,1.455269127,1.699693094,0.425714005,#DIV/0!,#DIV/0!,0.075944299,-0.295959043,-4.04653257,-1.588171149,pre
-3.48902766,-0.362465144,-0.020208175,-0.053983455,0.495582755,-0.047030054,-0.032287459,0.11436161,-0.017778054,-0.028570228,0.009810722,-0.125743718,-0.033557733,-0.245481494,-0.139732674,-0.043611159,0.706949581,-0.168287388,0.268188316,-0.041516908,-0.208138333,0.013706458,0.087226112,-0.051185361,-0.036313752,1.961791756,0.731408839,0.019657563,#DIV/0!,#DIV/0!,-0.050053397,0.046219082,-1.664497295,-0.194041,pre
-2.00101646,0.015545177,-0.01972632,0.179980471,1.042089288,0.02545254,0.00484028,0.121759407,0.012497149,-0.032711619,-0.028738087,-0.123324728,-0.033970339,0.08617846,-0.145909078,-0.07784079,0.442453184,-0.215361473,0.020227856,-0.274750506,-0.231700309,0.007109661,0.073458943,-0.063422827,-0.012360502,1.823410283,2.05488333,1.675348024,#DIV/0!,#DIV/0!,-0.215269369,-0.115118401,-2.352432847,-1.55764098,pre
-2.00101646,1.852869867,0.042849547,0.264048175,1.143639517,-0.062027199,-0.022656807,0.120539641,-0.031380284,-0.023905404,-0.070650145,-0.114482688,-0.022232781,-0.0744603,-0.134052101,-0.072450921,0.72704211,-0.161639167,-0.097378133,0.449403555,-0.150441268,-0.004115443,0.074320066,-0.072200844,-0.017024225,1.971165187,2.047877952,0.617178818,#DIV/0!,#DIV/0!,0.271787195,-0.283218217,-1.04688292,-1.527075288,pre
-0.72930948,0.572086109,0.040603133,0.116919893,0.927052549,-0.03763039,-0.002121648,0.116216996,0.008908686,-0.016820921,-0.053090856,-0.108627113,-0.047990757,0.038481904,-0.132344774,-0.063784794,0.261356902,-0.114345747,0.570435864,0.490181599,-0.149551575,0.03262447,0.098602783,-0.055453658,-0.026017862,2.273233971,1.268004508,0.708953484,#DIV/0!,#DIV/0!,0.601107196,0.032685443,-2.307226578,-0.376756114,pre
-1.092654331,-0.331292192,-0.109525469,0.019337427,0.727327782,-0.038479021,-0.003523944,0.11361499,-0.017931112,-0.016343366,-0.054711697,-0.111522973,-0.029339511,-0.003250599,-0.139696024,-0.095306495,-0.158770345,-0.180754451,-0.484091163,-0.277890206,-0.193520156,-0.027668809,0.033304666,-0.072867607,-0.048443065,1.91206737,0.509193842,0.803525203,#DIV/0!,#DIV/0!,0.243095594,-0.082105303,0.822582818,-1.194024508,pre
-2.193078424,-0.29174467,0.014117797,-0.235658646,-0.249181377,-0.040943642,-0.004567969,0.127626155,0.003536159,-0.022282008,-0.049101225,-0.096724484,-0.028485299,0.08143683,-0.118355278,-0.049247903,0.190801053,-0.149537205,0.225737624,-0.382092965,-0.149815129,-0.014992293,0.037164936,-0.054941909,-0.024873286,1.887524128,1.036291965,0.880027959,#DIV/0!,#DIV/0!,0.68426938,0.503947594,-0.065758285,-0.958531609,pre
-0.983650876,0.879421963,0.03989795,0.233050007,1.045453581,-0.073018492,-0.021112464,0.086678896,-0.023820646,-0.026873956,-0.034275017,-0.096966796,-0.07381021,-0.062961184,-0.150974393,-0.032770251,-0.653416914,-0.119818786,-0.073255327,-0.165381969,-0.154250779,0.019609492,0.06762337,-0.055216031,-0.017180291,1.639311437,1.021845889,2.397553305,#DIV/0!,#DIV/0!,0.728548964,0.153078754,-2.027129173,-1.454068635,pre
-2.249075281,2.18882195,-0.241281181,0.14499774,1.041914583,0.044216744,0.025626242,0.079729058,0.048437819,-0.019130459,-0.063386181,-0.074356463,-0.075545617,-0.023162869,-0.116450895,-0.094687174,0.570178644,-0.045393585,0.674205227,0.009173092,-0.072280589,-0.003815433,0.067839085,-0.031778077,0.025900242,1.29182835,2.481203958,0.589649604,#DIV/0!,#DIV/0!,-0.013748978,0.378782573,-0.706976591,0.404359149,pre
-2.001130369,-1.34272177,-0.315643776,-0.084551048,-0.289813824,0.041610111,0.035457689,0.098891043,0.053495406,-0.009361738,-0.064337916,-0.06092009,-0.038765978,-0.021149807,-0.068077362,-0.04166788,0.749531516,-0.009043277,0.556313667,-0.37683596,-0.040508459,-0.002985024,0.071117148,-0.062736671,-0.04658814,0.908150791,0.744217591,1.906010207,#DIV/0!,#DIV/0!,0.892326541,0.23003137,-1.50006767,-1.7381229,pre
-4.153290936,0.308115138,-0.04789446,-0.058603496,-0.030600515,0.005643891,0.015731657,0.110793289,0.008912082,-0.01460302,-0.028722433,-0.096763228,-0.101320555,-0.005663534,-0.147553094,0.01032964,0.21411273,-0.141481878,0.360941238,-1.032606161,-0.186091966,-0.026512969,0.041094686,-0.049580516,-0.043401978,2.230129461,0.592814386,0.611725412,#DIV/0!,#DIV/0!,-0.42432955,0.17005326,-3.50484709,-1.430416806,pre
-3.911884429,-0.726680262,-0.067408507,-0.152604671,0.005810304,-0.024596471,0.028419969,0.117896444,0.034339955,0.002956055,-0.02527571,-0.064543963,-0.108399031,0.044605007,-0.125961231,0.04891621,0.324390238,-0.089532646,-0.490872311,0.351666154,-0.14070598,0.017847171,0.101988062,-0.030485667,-0.033549544,2.600613856,0.482222766,1.261783184,#DIV/0!,#DIV/0!,1.145252766,0.607965301,2.267227175,-0.30677569,pre
-5.601031278,-1.387608131,-0.085260623,0.073363048,0.738330183,0.038878899,0.019760989,0.109779794,0.007525712,0.008372873,-0.030323709,-0.076633099,-0.021082426,-0.068882871,-0.095647719,-0.042293989,0.347150888,-0.044510098,0.763767587,0.092901275,-0.1365834,0.011181817,0.105643148,-0.062035969,-0.011729875,2.090352141,2.141232227,0.819937115,#DIV/0!,#DIV/0!,0.015213477,0.065780867,-0.797259431,-1.139756237,pre
-4.79260315,1.048997594,-0.210529343,0.069501385,0.253523134,0.021507255,0.016398024,0.099807155,0.027377842,0.002200956,-0.015956492,-0.097420463,-0.067537405,-0.074916326,-0.131198672,-0.014137395,-0.380372666,-0.127628159,-0.282759274,-0.25664633,-0.211006174,-0.013953901,0.059448406,-0.053103633,-0.026698855,1.927094346,0.71946408,0.523622676,#DIV/0!,#DIV/0!,0.123942211,0.181093659,0.487175585,1.063416347,pre
-4.46571533,1.525930448,-0.343821485,0.084705369,0.585644513,-0.055470645,-0.007524851,0.092570956,-0.005486095,-0.004462167,-0.058279227,-0.095465762,-0.063073529,-0.12177949,-0.116602761,-0.031011679,0.149264522,-0.058785949,0.588348896,-1.060909072,-0.13858478,-0.036569141,0.025482381,-0.065052344,-0.024498669,2.023976976,1.319490559,0.984683098,#DIV/0!,#DIV/0!,0.509653514,-0.17828833,0.361637784,-1.406471169,pre
-4.067493943,1.246928393,-0.20292103,-0.124789891,-0.294491044,-0.106812886,-0.028762992,0.084882228,-0.050511981,-0.014491327,-0.055802043,-0.119295574,-0.104386027,-0.166189926,-0.179513589,-0.017974718,-0.395215008,-0.070932981,-0.072398794,-0.782854888,-0.13823965,0.002599516,0.06604478,-0.055041486,-0.02019218,1.713409477,0.961481993,2.026953094,#DIV/0!,#DIV/0!,1.066345789,0.119277885,0.103054723,-0.876641138,pre
-4.49489674,-0.982007404,-0.178034732,0.010684971,0.665388052,-0.013175821,0.001497205,0.074075777,0.002209026,-0.012111101,-0.009680625,-0.068572509,0.069049196,0.071443091,-0.072108319,0.042464269,-0.142985361,-0.045199409,0.056778505,0.659910324,-0.112924362,0.00611564,0.118801129,-0.05772148,-0.037776446,1.765114927,2.012566033,0.906453723,#DIV/0!,#DIV/0!,1.546037468,0.426054195,-0.931704146,-1.849188589,pre
-6.208550904,0.969782566,-0.235420388,0.062762943,0.818838116,-0.053308352,-0.013962332,0.07559266,-0.002166935,-0.007877263,-0.014780228,-0.066984655,0.037091962,-0.138059766,-0.049760781,0.000263973,-1.040662248,-0.063788406,0.001517617,0.082416661,-0.141816035,0.037959864,0.122138688,-0.051766295,-0.05629807,2.661809122,1.194576738,0.876663178,#DIV/0!,#DIV/0!,0.509178972,0.382632756,0.576845443,-0.342617915,pre
-4.838419557,-0.46274406,-0.364866898,-0.070064649,0.473944528,-0.062441115,-0.021206548,0.06840786,-0.000163722,-0.017292466,-0.034380814,-0.08968182,-0.07242862,-0.04482119,-0.124100297,-0.019692679,-0.326294138,-0.009211232,-0.011949068,0.273061152,-0.074239988,0.056991751,0.109750959,-0.0125539,-0.000905054,2.003667261,1.343528702,1.405410361,#DIV/0!,#DIV/0!,-0.039235578,0.106512833,0.7694694,-1.235671196,pre
-4.446814633,1.246928393,-0.37911112,-0.025455973,-0.707731364,-0.025640793,-0.013486098,0.049268337,0.018065351,-0.016623576,-0.030193787,-0.054795837,0.004364117,0.086019972,-0.030714035,0.050401139,-0.846248239,-0.013815757,-0.431691541,-0.797217175,-0.046762087,0.062168502,0.093249974,-0.035441729,-0.023210444,0.687852498,0.685988855,1.278182512,#DIV/0!,#DIV/0!,-0.416446452,0.378737861,-0.979031503,0.026609448,pre
-2.873497438,0.17310945,-0.106237046,0.163365454,1.283036985,-0.028976949,-0.009549728,0.072269422,0.010331731,-0.005288284,-0.03164388,-0.056833149,-0.033218926,-0.278813737,-0.030528967,-0.013208966,-0.323154932,-0.011333421,0.170693572,0.211616184,-0.041625442,0.096473578,0.14781486,-0.003385922,0.021524633,1.706769939,1.222972147,0.254395742,#DIV/0!,#DIV/0!,1.193305366,0.549748325,-0.114759564,0.347838106,pre
-2.416331363,-0.755776374,-0.333701623,-0.094966741,-0.096937332,-0.084234949,-0.028115101,0.081951324,-0.014211831,-0.001030113,-0.008911187,-0.055333647,-0.025505819,-0.299777434,-0.045828615,-0.021263029,-0.377358277,-0.033906568,-0.161200623,-1.198531167,-0.0468878,0.093257905,0.109600499,-0.01086804,-0.0114429,0.853098239,0.232379619,0.662941178,#DIV/0!,#DIV/0!,0.424989721,0.537029326,-0.40285021,1.019772097,pre
-4.329267343,1.60486804,-0.530694745,0.089523451,0.763522466,-0.02079747,-0.014564644,0.085247607,-0.008558145,-0.003861718,-0.010918754,-0.056760399,0.00284961,0.034357768,-0.009447349,0.045719869,-0.549832126,-0.072075394,-1.055759937,0.212431666,-0.071560506,0.123075571,0.168089615,-0.004707442,-0.011046537,-0.384906543,0.952540455,0.237218108,#DIV/0!,#DIV/0!,0.501863266,0.074139468,-3.690657813,-0.733295132,pre
-5.097105766,1.180908746,-0.118792406,-0.05309895,0.311232016,-0.091885149,-0.057208755,0.071339035,-0.056473508,-0.009059289,-0.03696194,-0.071694995,0.028308168,0.162895229,-0.016907555,-0.000884346,0.413406469,-0.000693968,0.973340907,-0.394842834,-0.009704629,0.083123942,0.142164248,-0.023417736,-0.006458428,0.839426413,1.160380705,-0.085032087,#DIV/0!,#DIV/0!,-0.100265842,-0.074258032,0.021865342,-1.408977741,pre
-4.825252083,1.720099967,-0.201847875,0.302776423,0.796732307,-0.017757488,-0.026800599,0.062836891,-0.005260829,-0.013389779,-0.053516946,-0.095292901,-0.04628317,-0.156619372,-0.102048596,0.003836675,-0.768542989,-0.063751098,0.21605999,-0.687662368,-0.061672642,0.07849103,0.117785021,-0.004998546,0.008585036,1.499689704,0.706513909,0.440124799,#DIV/0!,#DIV/0!,0.883358255,-0.047031511,0.361637784,-1.081201144,pre
-3.698912216,1.525930448,-0.209121473,-0.042884917,0.013096099,-0.041055678,-0.033084138,0.060873868,0.011590854,-0.016269534,-0.033366831,-0.099759883,-0.100847512,-0.274116647,-0.085542932,-0.036729372,-0.513600868,-0.099435379,-0.449604986,-0.436223548,-0.101979533,0.088082233,0.132205773,-0.020234152,-0.007722311,1.775503382,1.557539138,1.271361478,#DIV/0!,#DIV/0!,0.529612031,0.200694757,-0.524634282,-1.751814402,pre
-5.412111659,1.253067013,-0.252682749,0.109173255,0.538898841,-0.016597959,-0.032175415,0.058029309,-0.007149532,-0.021260312,-0.025626468,-0.07567295,0.025554006,0.050392735,-0.018036877,-0.026145509,-0.369114453,-0.033253301,0.473049704,-0.265382988,-0.02649529,0.082933425,0.143073036,-0.006129692,0.009612166,1.512229194,1.418797959,0.644338831,#DIV/0!,#DIV/0!,0.411419593,0.036509141,1.773357496,-0.898351742,pre
-5.536570763,0.173024018,-0.254862542,0.064601764,1.350220603,-0.091145685,-0.056822308,0.057523529,-0.039477295,-0.027745754,-0.036997122,-0.077999839,-0.088998739,0.221430788,-0.041313912,0.074331258,0.308468038,-0.095175322,-0.502975257,-0.155472661,-0.096288268,0.1102912,0.167225108,-0.004143475,-0.001363369,2.01073541,1.459876205,0.348222635,#DIV/0!,#DIV/0!,0.790908617,0.633265526,-2.895998358,-0.571084642,pre
-3.478842474,-0.559463303,-0.369311614,0.342484485,1.703039314,-0.011516784,-0.039059021,0.055748717,-0.037179809,-0.02612385,-0.04185201,-0.093842393,-0.057066907,0.229374555,-0.056416599,0.024793797,0.682225957,-0.085694487,0.596015778,0.383541893,-0.08674727,0.081423977,0.167819643,-0.034001382,-0.014079264,2.007600111,0.955757642,1.203977812,#DIV/0!,#DIV/0!,-0.052216855,-0.105167921,-0.0977962,0.569987856,pre
2.243459648,0.572086109,-0.349269289,-0.083072419,0.219021995,-0.1607062,-0.100914133,0.052508265,-0.09013199,-0.029874839,-0.052740026,-0.065915573,-0.010295231,0.108930472,0.039388966,-0.01970676,1.02376564,-0.039302848,-0.349642408,-0.28799917,-0.037728578,0.068143343,0.13428894,-0.033091054,-0.036330619,1.720705289,0.924994136,0.871184386,#DIV/0!,#DIV/0!,0.343484415,0.164015033,-0.14051342,-0.011060568,pre
1.413628604,0.34595734,-0.414458255,0.017824762,0.584471098,-0.011981011,-0.048179277,0.052251343,-0.033299643,-0.030899474,-0.057040748,-0.076619365,0.000602084,-0.083341232,0.01760295,-0.038795271,-0.224180996,-0.003806436,0.415522917,0.604340661,-0.005572946,0.065388885,0.165053794,-0.047591236,-0.047913056,2.212135279,1.033596981,-0.002019606,#DIV/0!,#DIV/0!,-0.492251471,0.258466687,-1.952636478,-1.854031672,pre
0.5423975,1.093339056,-0.375963558,0.099234916,0.490551196,-0.088046854,-0.066834409,0.056557919,-0.055848345,-0.025439705,-0.032782485,-0.069406609,0.053852046,-0.263177316,0.0721797,-0.037946134,-0.381138141,-0.093565143,-0.339371456,-0.51948814,-0.106289528,0.038274741,0.112823391,-0.03607081,-0.032402955,1.900826983,0.663506995,0.449833609,#DIV/0!,#DIV/0!,0.00844096,-0.396809828,-0.099974017,-0.936789106,pre
-0.72930948,-1.875933012,-0.276421464,-0.087353183,0.73168716,-0.086776972,-0.069120226,0.060308967,-0.072889407,-0.016622602,-0.037007433,-0.079140221,-0.005091156,-0.147644317,0.011111487,-0.038495461,-0.365037191,-0.027624608,0.151520841,-0.269450448,-0.038179912,0.064476723,0.119900172,-0.025497632,0.013220265,1.953273224,2.272745601,1.131505521,#DIV/0!,#DIV/0!,-0.507426777,-0.038479398,-0.989883387,0.330321495,pre
0.5423975,0.917029498,-0.333116174,-0.006121784,-0.129786154,-0.04187949,-0.056587915,0.071402835,-0.050056598,-0.020557167,-0.009126249,-0.09077006,-0.062695354,-0.038649139,-0.033795405,0.036720146,0.246051241,-0.038650407,-0.428680549,-0.654980298,-0.045894321,0.050981547,0.103629289,-0.052692822,-0.041809698,1.526940017,0.894434752,0.402612052,#DIV/0!,#DIV/0!,0.036663517,-0.167306388,0.361637784,0.258022743,pre
0.5423975,0.879348736,-0.421943633,0.077163728,0.829581136,-0.094030246,-0.083576731,0.056697819,-0.04936287,-0.023801192,-0.050767099,-0.09180512,-0.066892937,-0.07628873,-0.044999654,0.038038557,-0.383803936,0.001018163,0.067833599,-0.111512257,-0.012086549,0.049602799,0.122663549,-0.062232392,-0.056228164,1.027825097,0.394331816,1.176360918,#DIV/0!,#DIV/0!,0.253089097,0.17637785,-4.291929007,-1.860358278,pre
-1.47331508,-2.317559451,-0.276513943,-0.228847304,-0.451120004,-0.142065625,-0.115656389,0.057493257,-0.119072738,-0.034157121,-0.057427328,-0.093809561,-0.011540726,-0.154444731,-0.001111927,-0.02163626,-1.139330062,-0.076450758,0.206438702,0.035933057,-0.119089895,0.020179657,0.125051489,-0.069295531,-0.03326839,1.548310178,1.626628256,0.12959995,#DIV/0!,#DIV/0!,-0.307244363,-0.453275988,0.487175585,-0.306134075,pre
-0.963824808,-1.823827422,-0.384615575,-0.522008609,-0.998956353,-0.203900487,-0.139148443,0.051480829,-0.128605825,-0.034352845,-0.016435861,-0.111132593,-0.002019211,-0.30544469,-0.033527498,-0.053243945,-1.026703297,-0.103671639,0.009479352,0.114741635,-0.120539241,0.033354042,0.13972433,-0.077022728,-0.050076351,0.849306214,1.328570008,0.045960041,#DIV/0!,#DIV/0!,-0.751718089,-0.502920423,-4.491140923,-0.684481917,pre
-2.00101646,-0.297625221,0.028246376,-0.354355632,-0.561090642,-0.119972508,-0.101164393,0.060781505,-0.056146646,-0.027369807,-0.02860024,-0.078570663,-0.094754622,-0.275658562,0.020148036,0.033578853,-0.928936558,0.034074611,-0.263922144,-1.233959312,0.038463885,0.033478778,0.100771505,-0.048317131,-0.025492737,1.887524128,0.560525155,1.569717748,#DIV/0!,#DIV/0!,2.047444656,0.454091766,1.883106313,-2.161826734,pre
0.5423975,0.014146073,-0.06076164,-0.373427097,-0.091441582,-0.136149623,-0.117465892,0.060353112,-0.098511849,-0.023818208,-0.036212067,-0.092596167,-0.042125683,0.003036523,-0.001318217,0.064773557,-0.160409621,-0.088140477,-0.338993503,-0.669190351,-0.136897435,0.03487348,0.126273724,-0.06225364,-0.031216514,1.65416188,1.1268773,0.596368541,#DIV/0!,#DIV/0!,-0.846097863,-0.139956411,-4.387435438,-0.892391088,pre
-2.00101646,-0.014030545,-0.233752552,-0.351129594,-0.716261297,-0.112703151,-0.106576021,0.057061208,-0.087128396,-0.019302619,0.001600473,-0.085720018,-0.051120425,-0.213433442,-0.02249833,0.044671834,-0.207056328,0.0123784,0.590903038,-0.026631494,-0.031379186,0.071826633,0.148982706,-0.041490624,-0.029863203,2.900324499,1.395902423,0.154089569,#DIV/0!,#DIV/0!,-0.022862192,-0.055101169,-1.727723358,-1.035401332,pre
0.5423975,-2.059512298,-0.23928798,-0.588653936,-0.58717851,-0.135324177,-0.111529494,0.053790377,-0.084560039,-0.019791777,-0.030635376,-0.08951294,-0.054372045,-0.098787601,0.007294429,0.047143539,0.470122206,-0.06178925,-0.944242619,-0.127766337,-0.112494645,0.068479848,0.158173539,-0.034858647,-0.01468367,2.973708197,0.904077973,2.217383745,#DIV/0!,#DIV/0!,0.158986779,0.033669087,-3.63035953,0.448092145,pre
-1.36516297,-0.938716863,-0.256710746,-0.231712956,0.120813743,-0.170026379,-0.134317392,0.054239439,-0.130535545,-0.019283616,-0.015185027,-0.087770425,-0.015169817,0.341381486,-0.038357836,0.141098531,1.007409214,-0.042150743,-0.000733699,-0.969301147,-0.097907156,0.050330043,0.117000569,-0.045852205,-0.006767432,2.758142698,1.846244393,1.536204421,#DIV/0!,#DIV/0!,-0.412811424,-0.050810384,-1.92056501,-0.306744553,pre
-4.388817264,0.102325307,-0.155783075,-0.434469816,-0.500525775,-0.172990362,-0.129951883,0.052280082,-0.109341201,-0.011189171,-0.025210316,-0.089712652,-0.018377739,-0.3506115,-0.049978419,0.012695299,-0.888951104,-0.030511704,0.521455464,-0.066181474,-0.079715136,0.056821948,0.154330872,-0.0459758,-0.018172633,2.224172162,1.359863502,1.192143014,#DIV/0!,#DIV/0!,0.283441829,0.168406978,-1.69788272,-1.907855648,pre
-4.632025433,-2.047131941,-0.178655528,-0.384392251,-0.913996812,-0.098771185,-0.101961512,0.050595178,-0.053281889,-0.003371064,-0.006852032,-0.064107983,-0.039696966,-0.137882556,0.00414974,0.044517655,-0.870192464,0.005582698,0.298680517,-1.90450039,-0.057659136,0.069713947,0.135760002,-0.049308286,-0.029911143,2.190123406,0.884912416,3.921355653,#DIV/0!,#DIV/0!,1.357496435,-0.248088495,0.173331083,-1.692061464,pre
-4.402788841,-1.290631799,-0.210450345,-0.230686702,0.299522349,-0.124868005,-0.117542159,0.04671244,-0.098918539,-0.003855174,-0.019534297,-0.075726814,-0.01866261,0.265340062,-0.021953086,0.105862421,0.025809205,-0.06002617,0.012659327,-0.02574147,-0.134978522,0.035936286,0.156549175,-0.056147513,-0.016014434,2.832214152,1.970942709,0.419738805,#DIV/0!,#DIV/0!,-0.569034844,-0.019046724,-1.831782578,-0.911131286,pre
2.856838569,-0.462850855,-0.271642027,-0.165068201,0.027360733,-0.151749432,-0.12438369,0.039983605,-0.102311298,-0.01023427,0.000583423,-0.065858998,0.047402559,0.021456293,0.008791963,0.082844548,0.205685809,-0.021495062,0.246527756,-0.331159035,-0.088833185,0.045068916,0.157679563,-0.078774468,-0.056155518,2.287930445,0.89248347,0.324377582,#DIV/0!,#DIV/0!,0.221264154,-0.325435826,-2.496746303,1.262455453,pre
0.5423975,0.940528737,-0.293589415,-0.205398576,0.024270421,-0.210037402,-0.153042555,0.029354429,-0.129409554,-0.016701175,-0.03594745,-0.098219054,-0.098613334,-0.202658059,-0.096202482,0.005316479,0.645872474,-0.050742883,-0.784171374,-0.523588701,-0.101969219,0.015383695,0.104155889,-0.057562113,-0.023579612,2.485839257,0.659173727,1.00520418,#DIV/0!,#DIV/0!,1.10193862,0.19804491,-0.61966661,0.033019397,pre
-1.430054236,-1.788268829,-0.116127198,-0.196501435,-0.288393512,-0.102384878,-0.120150269,0.025930567,-0.124794666,-0.020840747,-0.034086604,-0.09831443,-0.035110939,0.097820364,-0.08392569,-0.003485687,0.34354787,-0.039551878,0.412033673,0.666185577,-0.072828716,0.019353735,0.156728891,-0.076054726,-0.021081495,2.218663535,2.249932653,0.387631651,#DIV/0!,#DIV/0!,-0.200324714,-0.778350316,-1.841670699,-1.548675153,pre
-2.74502206,-1.434644582,-0.111917869,-0.39800761,-0.977743208,-0.099247281,-0.098911678,0.03012587,-0.075626968,-0.018925339,-0.017209088,-0.079040544,-0.048964753,-0.294632824,-0.048209609,0.023793687,-0.358022022,-0.018756304,0.108430471,-1.070999891,-0.066642577,0.010075722,0.086961506,-0.065910824,-0.052265507,2.057790456,0.692337588,2.490896193,#DIV/0!,#DIV/0!,0.372298959,0.661985206,-1.676996867,-1.079929986,pre
-2.316001224,-1.195402245,-0.343868345,-0.168376652,-0.642658762,-0.207215535,-0.138597929,0.03926866,-0.144260327,-0.021245301,-0.06698191,-0.096368642,-0.081258639,0.14047022,-0.075764509,-0.020864232,0.492436103,-0.013318536,0.422313466,-0.343108782,-0.044335908,0.00604903,0.10750236,-0.09089889,-0.07790748,2.310547721,0.90900537,0.989175235,#DIV/0!,#DIV/0!,0.574969874,-0.572040528,-1.538984933,-1.066705017,pre
-5.917364884,-0.539803451,-0.79797023,-0.118064469,-0.347023119,-0.086056643,-0.097963194,0.045348663,-0.104885257,-0.020854271,-0.036477636,-0.106427058,-0.039160658,0.345548272,-0.12173267,0.042624046,1.160347141,-0.102365889,-1.371457559,-0.315471224,-0.152062194,-0.000276939,0.103874293,-0.082303168,-0.03823832,1.344983854,2.140075321,0.675947816,#DIV/0!,#DIV/0!,-0.788196673,-0.206519272,-2.822981644,-2.623115221,pre
2.594307697,0.444582038,-0.680207592,-0.172359057,0.146907121,-0.12701926,-0.105056613,0.0531183,-0.106765471,-0.007336111,-0.035136705,-0.056424286,-0.005465692,-0.114475473,-0.014588044,-0.030799357,-0.338942754,-0.069950026,-0.001184812,-0.013924508,-0.120865369,0.037018122,0.137343702,-0.05678386,-0.033385956,1.116257276,0.944100346,1.788233964,#DIV/0!,#DIV/0!,-0.496489068,-0.232343555,-1.339136266,-1.499534297,pre
-0.411382735,-0.814349621,-0.425550824,-0.297304056,-0.384924696,-0.118361513,-0.084068229,0.059352107,-0.090079158,-0.005511629,-0.003104692,-0.080672414,-0.094736818,-0.172095741,-0.08069004,0.017300363,0.171944903,-0.010274326,-0.365015389,-0.339319432,-0.03575114,0.078229283,0.129405866,-0.057240438,-0.055688162,2.638448892,0.666198928,1.630179529,#DIV/0!,#DIV/0!,0.115585205,-0.43691333,-1.608809804,0.498090064,pre
0.5423975,-0.139212241,-0.296684797,-0.072941574,-0.311871293,-0.157906398,-0.10589269,0.062375518,-0.119440975,0.008957739,-0.005163266,-0.05273646,0.028135802,-0.282395395,0.000829238,0.055509292,-0.679929099,-0.065783578,-0.882782495,-0.358685545,-0.082935393,0.048536839,0.111631701,-0.04679003,-0.038678692,1.579673058,1.172993071,3.749332,#DIV/0!,#DIV/0!,-0.159892712,-0.705271664,-6.031548454,-2.716180032,pre
-3.27272344,0.374133958,-0.199397372,-0.216810138,-0.135614891,-0.143826233,-0.106754796,0.064595296,-0.104276215,0.008400182,-0.009250776,-0.071084098,-0.062193167,-0.060111578,-0.053110951,0.061063155,0.043882057,0.014782391,0.175130305,-0.44806288,-0.007628215,0.065295655,0.121029294,-0.038383607,-0.031541447,1.505573801,0.568666109,1.067491712,#DIV/0!,#DIV/0!,0.049216827,0.070584652,-0.14051342,0.494798966,pre
0.5423975,-0.475267001,-0.060638809,-0.148288296,-0.054050217,-0.066977459,-0.078710884,0.055117238,-0.061063643,0.002935566,-0.016169657,-0.048850612,-0.020125017,0.222770798,0.021029001,0.129968901,1.068984464,-0.065969396,-0.273622471,-0.053597264,-0.04807899,0.053829691,0.111100315,-0.034954613,-0.020678685,1.441174748,1.157120795,0.961676704,#DIV/0!,#DIV/0!,-0.015984874,-0.621472219,-5.905150355,-3.867833347,pre
-3.27272344,-1.38428377,-0.084556706,-0.157080367,-0.777175138,-0.101601532,-0.108664529,0.055396754,-0.109687592,0.005264653,-0.034397447,-0.066215738,-0.009178879,-0.042206376,-0.006245669,0.042120697,-0.049727147,0.00907546,0.205386266,0.300910456,-0.004857631,0.075468516,0.149813103,-0.013131556,0.025189513,2.194957641,1.862571428,0.503576236,#DIV/0!,#DIV/0!,0.137024039,-0.34288755,0.461421729,-1.300178344,pre
#DIV/0!,0.904993902,-0.098918355,-0.136155727,0.211684331,-0.123060864,-0.151798254,-0.136277614,-0.093029294,-0.104203968,-0.05231925,-0.10944741,-0.15854717,-0.16139541,-0.061385238,0.055606838,-0.103092748,0.116689863,-0.837939189,-0.091748524,0.034979619,0.046911628,0.041608303,-0.011912274,-0.049000454,0.733049368,1.602511532,0.298245478,#DIV/0!,#DIV/0!,-0.248854953,-0.562059881,-3.705370068,-3.518216646,pre
-1.36516297,-2.547894133,-0.13120173,-0.210445799,-0.362715364,-0.08042092,-0.167989899,-0.167355219,-0.107792556,-0.107628342,-0.054799294,-0.137519847,-0.225265245,-0.292291109,-0.082782402,0.060632457,0.489815824,0.031827181,-0.144719429,-0.237924714,-0.031583482,0.044419419,0.051532579,-0.014953088,-0.059215302,0.671161526,0.896008424,0.288660666,#DIV/0!,#DIV/0!,-0.346092915,-0.522705051,-4.19352913,-2.848349097,pre
-1.36516297,0.220608695,-0.236637884,-0.19189877,-0.434765066,-0.152604972,-0.185158729,-0.138236727,-0.117567586,-0.06722757,-0.019060641,-0.107312677,-0.147157026,-0.334236472,-0.002565563,0.105412169,-2.049302327,0.178192487,0.346080212,-0.830912882,0.193223437,0.078382182,0.081585769,0.007756246,-0.072105134,1.546791326,0.43173118,0.797598395,#DIV/0!,#DIV/0!,-0.178706271,0.128509329,-2.530699872,-0.46615865,pre
0.5423975,1.044441846,-0.338443323,-0.138489858,-0.131509987,-0.044669835,-0.137941491,-0.13696232,-0.042373175,-0.045356272,-0.054218058,-0.072097111,-0.050061705,-0.036939011,0.098454032,0.130327569,0.075209517,0.142255335,0.530497276,-0.052733225,0.206393882,0.084431589,0.110650761,0.026452204,-0.028160082,1.292656476,1.553005441,1.77499968,#DIV/0!,#DIV/0!,-0.356899272,-0.518861321,-1.292876005,-3.020635468,pre
-1.10131228,-1.946596373,-0.374423537,-0.35204223,-0.533153871,-0.124170202,-0.16877338,-0.120627426,-0.081874665,-0.031346439,-0.02293826,-0.053014637,-0.07246537,-0.013969533,0.152493156,0.117423139,0.099426374,0.148574471,0.148495944,-0.143127094,0.284129065,0.096789922,0.155557724,0.014146781,-0.019022002,0.285745935,1.4097756,-0.166171724,#DIV/0!,#DIV/0!,-0.868584701,-0.702421113,-1.536451864,-2.691030502,pre
-5.216732718,-1.056664588,-0.367295626,-0.231643846,-0.445688765,-0.076609656,-0.135646849,-0.09474909,-0.074787344,-0.017454196,0.001045232,-0.043396679,0.045066817,-0.273286182,0.18025349,-0.028201909,-1.811109086,0.057796057,-0.08795608,0.477396097,0.178111273,0.111925994,0.203406415,0.035181357,0.003966429,0.351685109,0.964767895,-0.577383532,#DIV/0!,#DIV/0!,-0.504479157,-0.801978065,-0.12496438,-2.100764963,pre
-3.233384876,1.1809657,-0.540472391,-0.120369694,-0.349516604,-0.031816807,-0.089655961,-0.047089738,-0.004902317,0.020366413,0.031909381,0.001015392,-0.006677064,0.002500523,0.212665383,0.10736896,0.112991335,-0.020371119,-0.691850944,-0.782546766,0.169136696,0.184149974,0.253235981,0.035897683,0.024321744,-0.853996962,0.537350108,0.065059616,#DIV/0!,#DIV/0!,-0.753035365,-0.417465415,-2.235369158,-0.165718233,pre
-2.163192857,0.220608695,-0.309074313,-0.339928407,-0.297627461,-0.186051355,-0.13925073,-0.008382137,-0.062221128,0.039101815,0.016397744,0.005399735,-0.010704063,0.105211111,0.159371017,0.043341998,-0.074996185,0.002680132,-1.708754661,-0.220523862,0.21744535,0.173400002,0.254925904,0.045277034,0.023415404,-0.752640949,0.553552297,0.39571518,#DIV/0!,#DIV/0!,0.15218187,-0.311805326,-0.40285021,-0.669999839,pre
0.741020251,-1.240207752,-0.221780398,0.252246586,0.778108471,-0.018405188,-0.070177125,0.008941858,-0.003791841,0.04757343,0.019028691,0.03522253,0.105410427,-0.01246202,0.209009563,-0.08188754,-0.226228363,-0.004712676,0.246219458,0.32661095,0.222328318,0.129575935,0.258647262,0.018147708,0.049254751,-0.959309477,2.218013496,1.06357998,#DIV/0!,#DIV/0!,-0.573757381,-0.356850118,-6.156862294,-1.585146188,pre
-0.72930948,-0.660760285,-0.230207633,-0.40255193,-0.333707472,-0.10846522,-0.083764497,0.02270132,0.006729475,0.048470865,-0.013726072,0.025500484,-0.065886319,-0.063914246,0.124346516,-0.024906333,-0.192102484,-0.016802093,-0.913469506,-1.054830228,0.261429794,0.103868778,0.204049574,0.023198776,-0.024396999,-0.38364923,0.130763732,-0.239944998,#DIV/0!,#DIV/0!,-0.189007227,0.053775015,1.11486459,-2.047418728,pre
-0.667030048,-0.660760285,0.008416896,-0.07880713,-0.26749123,-0.025905861,-0.038888571,0.02387314,0.051082412,0.042692355,0.016060673,0.054350102,-0.020935883,-0.483642939,0.170996628,-0.147122303,-0.463290748,-0.056567447,-0.131663147,-0.173941643,0.216395891,0.08136189,0.201367287,0.009419819,0.01789638,-0.329356524,1.094880091,-0.287448947,#DIV/0!,#DIV/0!,0.004262863,-0.156137712,-1.154863993,-1.274389756,pre
-0.72930948,-0.139314759,-0.021529754,-0.147369555,-0.570918389,-0.088605957,-0.053168951,0.027748476,-0.011752603,0.052877731,-0.017707777,0.040938591,-0.109337944,-0.035089964,0.058826355,-0.06577979,1.009661271,-0.03074232,0.094216592,0.000343123,0.231383028,0.058639464,0.186617803,0.019685569,0.016066965,-0.093670739,0.643857929,0.287291338,#DIV/0!,#DIV/0!,-0.003575567,-0.578004684,-0.989883387,-0.053857507,pre
-3.305448321,0.969782566,0.003456385,0.179369532,0.826062212,0.050360766,0.000610288,0.032258082,0.082731266,0.063804254,0.018178815,0.076535553,0.037377815,0.068813386,0.118133058,-0.101803018,0.552314839,-0.011008697,0.615419516,0.046474788,0.253139889,0.061108474,0.201820506,0.044865016,0.023650756,0.286718118,0.898676711,0.084531714,#DIV/0!,#DIV/0!,-0.224680364,-0.200097631,-0.40285021,-0.905745721,pre
-5.818029071,-3.043897787,-0.186750685,0.066420132,0.399799923,0.093886051,0.026889351,0.033677921,0.089475714,0.080302023,-0.006780957,0.095695356,-0.016726884,0.067156209,0.129764441,-0.038762648,0.796247072,-0.003027986,0.078241844,-0.024355635,0.266491812,0.069764433,0.206205477,0.048086013,0.042927274,1.099927215,1.855659733,0.158601252,#DIV/0!,#DIV/0!,-0.636775449,-0.63253685,-6.114727737,-3.025978864,pre
0.696934605,2.758712768,-0.268043688,0.014430516,0.869493214,0.049011299,0.03469451,0.055629356,0.09646737,0.100275345,0.00050588,0.140552312,0.05379251,-0.187597493,0.223661904,-0.031811799,-1.542484499,0.031783538,-0.323216044,-0.006184223,0.304080889,0.121956148,0.224945317,0.080728565,0.062392886,1.239994474,0.186940486,0.121222798,#DIV/0!,#DIV/0!,-0.0167063,-0.091135329,-1.2539587,0.787216812,pre
0.5423975,-1.056643235,-0.200201922,0.07914143,-0.266459739,0.068332571,0.047469055,0.060927687,0.118296972,0.114433031,0.022488639,0.158968175,-0.020201909,-0.367980353,0.189550162,-0.050707677,-1.476187362,0.111991455,-0.151602116,-0.703869312,0.369235831,0.135328423,0.222513056,0.110827466,0.059084794,1.350597966,0.455385597,1.642827968,#DIV/0!,#DIV/0!,0.0272374,-0.291507173,-3.319036523,-0.18132479,pre
0.5423975,1.253010059,-0.207113233,0.078437636,1.169861483,0.009791454,0.027080114,0.060573135,0.094943793,0.121336988,0.021980504,0.157279963,0.000592279,0.1808235,0.157859827,0.039849088,0.215353772,0.140829405,0.249949143,-0.37804461,0.446022463,0.158363526,0.225629409,0.118198177,0.061507042,1.189875582,1.135361017,2.271930652,#DIV/0!,#DIV/0!,0.137433791,-0.110824796,-2.865909695,-1.630270638,pre
-4.76073464,-0.403222642,0.007616149,0.132728822,0.467755645,0.016522738,0.029192501,0.072480252,0.085807503,0.142181272,0.045097273,0.195566346,0.092156185,0.155090287,0.262655805,0.049120965,0.621487909,0.123390227,0.522005767,0.124308152,0.408630047,0.186531161,0.266316561,0.128970402,0.110093712,1.473138268,2.173247149,1.38675292,#DIV/0!,#DIV/0!,-0.452739625,-0.669544556,-2.699948033,-2.062673504,pre
3.162659647,-0.051364661,-0.066671463,-0.203423745,0.279149746,0.031211875,0.04699812,0.080531256,0.130963022,0.150979677,0.059157561,0.225088907,0.103166649,-0.046799856,0.357359701,0.051403469,0.162750116,0.156607648,-0.676323064,-0.628985523,0.474157002,0.246979193,0.316635497,0.158157348,0.106559346,-0.626552991,0.439429463,-0.419273394,#DIV/0!,#DIV/0!,-0.441026592,0.036001947,-0.09930725,1.085970399,pre
-2.74502206,2.45267272,0.310633842,0.257089557,1.505570913,0.089977944,0.072865113,0.070457336,0.179317333,0.178386933,0.086583052,0.234564733,0.126200272,-0.105478049,0.37551191,0.134336887,-0.501369245,0.161956915,-0.121381916,-0.596134256,0.48380491,0.255021815,0.315814084,0.190658132,0.139670113,-0.114619809,0.931206983,-0.465755778,#DIV/0!,#DIV/0!,-0.068274858,0.618441637,-5.166823688,-0.222822468,pre
-6.7766366,-0.44271321,-0.035570157,-0.184791075,-0.358723386,0.070139934,0.071992476,0.070901119,0.170035554,0.208659657,0.120213443,0.271964367,0.141808927,-0.244565701,0.428711544,0.129646629,-0.200029726,0.245316381,0.101275967,-0.873279127,0.576079129,0.32712409,0.374112981,0.212170337,0.152971868,0.333304517,0.92717336,0.324753379,#DIV/0!,#DIV/0!,0.81546844,0.607546695,0.711903493,-0.464093746,pre
-0.969386935,-1.675100526,0.162271945,0.036296527,0.767551944,0.216654352,0.117242989,0.081323716,0.217454796,0.218840344,0.110044033,0.275981346,0.189017576,-0.127582396,0.449266402,0.154694816,-0.027659411,0.239415767,-1.241687984,0.377002615,0.52807775,0.348907897,0.428847572,0.221407903,0.173237989,1.252893058,1.176915253,0.267972899,#DIV/0!,#DIV/0!,-0.915682802,-0.226388783,-2.304695516,0.24607688,pre
-2.319071353,-1.323128636,-0.016923459,0.034504304,0.595271227,0.073082757,0.064981562,0.07274426,0.166457158,0.232872579,0.077263157,0.285185525,0.219353741,0.367936154,0.4841578,0.274562541,0.687254521,0.338516012,-0.010691965,0.550684161,0.628110505,0.378468268,0.453492551,0.243321617,0.210916396,2.919137761,1.202375353,0.178794088,#DIV/0!,#DIV/0!,0.085256098,-0.077780382,-0.58590946,-1.101753768,pre
0.5423975,0.969885084,0.002249464,0.303941604,0.830981625,0.027644705,0.045593521,0.061874261,0.183761457,0.233653833,0.117529775,0.296868266,0.165375525,-0.041655201,0.531680067,0.256776256,-0.735771287,0.328529555,-0.952249326,-1.398233276,0.649747843,0.382065144,0.394275046,0.251421803,0.178183899,2.756986129,0.455370545,1.028438356,#DIV/0!,#DIV/0!,0.769969836,0.355934721,1.11486459,0.384607484,pre
-0.72930948,0.697498828,-0.063754878,0.138727076,0.625334384,0.034557937,0.024021021,0.040787892,0.143604096,0.223280705,0.098380535,0.27035866,0.233028775,-0.240593426,0.515719432,0.218300964,-0.783325007,0.297140803,-0.328238243,-1.217043582,0.601057978,0.343561628,0.361861027,0.241862484,0.184498002,2.935732673,0.898610051,2.924841354,#DIV/0!,#DIV/0!,-0.13061424,-0.063102104,-2.069754838,-0.325069397,pre
-0.220626688,0.444582038,0.06897501,-0.013476672,0.505464987,0.092862906,-0.035414333,-0.367974788,0.153038887,0.099130613,0.009969361,0.191550362,0.083159274,-0.200260327,0.373559533,0.187446998,-0.430100071,0.352702347,-0.623854739,-0.363844163,0.571672926,0.339335627,0.305847615,0.226600194,0.126124079,0.517519177,1.129568853,-0.078212555,#DIV/0!,#DIV/0!,0.06639026,-0.087122682,-0.778932877,-0.44423614,pre
-0.002619777,-0.403279597,0.04711344,0.196973525,0.785233017,0.04743487,-0.058815871,-0.246113415,0.119270321,0.120116526,-0.001206238,0.180368321,0.079627345,-0.010535025,0.366559231,0.219326065,-0.775495068,0.405843093,-0.485039544,-0.622268528,0.703041648,0.35295812,0.33157632,0.245124027,0.168743067,1.403903431,1.363634846,-0.040059734,#DIV/0!,#DIV/0!,0.458763554,-0.038944014,-2.057405328,-1.269158864,pre
-2.48117137,0.560562471,0.040017702,0.282162788,1.527891638,0.071087984,-0.032678551,-0.146601706,0.165725749,0.153014338,0.031132946,0.193657535,0.065631367,0.083560827,0.42690848,0.289496169,-0.556493963,0.298420493,-1.010846448,-0.336176689,0.599192255,0.363275656,0.354704288,0.243573488,0.146535828,2.157634641,0.396544727,0.274664313,#DIV/0!,#DIV/0!,0.32414574,0.373918522,1.883106313,-0.702129211,pre
0.5423975,0.653150251,0.123215641,0.195607387,0.2695464,-0.007879729,-0.058514523,-0.092402067,0.118846879,0.164232711,0.046506407,0.190292686,0.140850653,0.081951228,0.416648926,0.203082734,0.023970558,0.327749967,-0.911489564,-0.379639935,0.664823685,0.363497178,0.346795082,0.243492392,0.127591335,2.153593498,0.636251727,0.406968813,#DIV/0!,#DIV/0!,-0.503769656,-0.375515044,3.41958976,-0.779029465,pre
0.5423975,1.331737569,0.143106479,0.189852695,1.100116745,0.042064993,-0.045289591,-0.074535319,0.1222039,0.159882926,0.05938024,0.181287093,0.066007506,-0.153274638,0.406877573,0.185836671,-0.56251791,0.295886256,-0.414494797,-0.840148155,0.637756201,0.325431924,0.30759983,0.245106236,0.160663352,2.288260947,1.105183706,0.437959354,#DIV/0!,#DIV/0!,0.503339735,-0.120119325,-2.059922994,-0.660005352,pre
-5.50474024,-0.579294019,0.148589092,0.100325466,0.47499652,0.125232063,-1.9125E-05,-0.072935618,0.167925014,0.163276709,0.041800745,0.206276646,0.168867305,0.167759917,0.475144056,0.241687764,0.354024325,0.415500812,0.271042549,-0.150139559,0.756051724,0.343580881,0.328137011,0.229125995,0.139364925,3.263903583,0.601011813,0.28309162,#DIV/0!,#DIV/0!,0.049149732,0.033865457,-2.528817773,-0.981361539,pre
-1.430054236,0.157146598,0.086450327,0.113091652,0.533142032,0.128258279,0.011164879,-0.078287415,0.163919363,0.161988225,0.044121874,0.197911732,0.151024058,-0.072103973,0.458138931,0.187976757,-0.452177525,0.293301084,-1.054419515,-0.552486913,0.60619572,0.335561718,0.308908635,0.231724156,0.139731741,2.412963768,1.320797113,1.465929573,#DIV/0!,#DIV/0!,0.043484126,-0.085812422,-1.314256985,-1.036895496,pre
-0.72930948,0.653117706,0.110610716,0.28099066,0.888845272,0.02514688,-0.029497482,-0.067152668,0.117245225,0.153030095,0.055882679,0.200246394,0.148590916,-0.455474156,0.501814637,0.142162395,-0.211072132,0.335218823,-0.757679284,-1.140620739,0.666085741,0.316926439,0.285569027,0.249933795,0.166657965,2.127387862,1.256434484,0.727524666,#DIV/0!,#DIV/0!,0.179314387,-0.289719231,1.498985452,1.254289262,pre
-0.888272853,0.523430537,-0.001738525,0.195230182,1.1486738,0.092741861,-0.007291942,-0.057458079,0.134242614,0.147338444,0.041127184,0.177723295,0.100283243,0.435683735,0.443994162,0.275709977,1.056336886,0.292412269,0.320698491,0.247963624,0.571243778,0.343201807,0.369909976,0.222581734,0.154822752,2.356272952,1.81338598,0.015819194,#DIV/0!,#DIV/0!,-0.218869231,-0.328697361,-2.099333851,-1.615612784,pre
-1.401213673,-0.09074132,0.106510306,0.085657378,0.325693668,-0.051398,-0.045845316,-0.055346345,0.087644924,0.1500575,0.048542551,0.222703611,0.13764258,0.004551044,0.578206861,0.254730434,-0.376288123,0.352623154,-1.439099473,-0.498391598,0.665914681,0.37649475,0.367188734,0.267074579,0.15969876,3.000871431,0.388960987,0.272314525,#DIV/0!,#DIV/0!,-0.599436429,0.208181311,-1.280376433,1.238126752,pre
-1.725279153,1.42436603,0.064856198,0.204739488,1.137919157,0.002131672,-0.032571905,-0.056185484,0.124821698,0.148183208,0.0405256,0.222439731,0.151532645,0.137771292,0.569753191,0.26696683,-0.464144401,0.469823814,0.157778231,-0.502523636,0.816085445,0.394728869,0.3919526,0.245983962,0.136299901,2.540409687,0.851049428,0.444469599,#DIV/0!,#DIV/0!,0.231594514,0.223812207,0.173331083,0.653424498,pre
-2.732952191,0.020679698,-0.047994764,0.118231479,0.649385794,0.007092414,-0.043516295,-0.045562101,0.082600757,0.145727446,0.072979772,0.221547952,0.239310981,0.050842505,0.602039581,0.250598897,-0.281998775,0.356381415,-0.930599519,-0.05905226,0.708234561,0.392036519,0.387900685,0.264279644,0.170185892,1.6932692,0.86425675,1.608662238,#DIV/0!,#DIV/0!,0.141763231,0.104023012,-0.290420157,-0.230760064,pre
-5.20989008,2.56082469,0.09619606,0.234233344,1.408603823,0.020413394,-0.033014411,-0.028509891,0.111840062,0.151667039,0.045746511,0.239868807,0.236267968,-0.16107564,0.651954014,0.264152804,0.195150048,0.310612497,-0.75711703,0.391630631,0.657781582,0.421960094,0.430493389,0.259302866,0.136831087,2.935098729,0.858035387,0.179906988,#DIV/0!,#DIV/0!,-0.78804101,-0.363794047,-1.97544493,-0.671097783,pre
-7.222756068,-0.651281423,0.066316836,0.071200182,0.740234775,-0.034936537,-0.054894052,-0.019688548,0.065197853,0.15785144,0.080506066,0.238989542,0.217186815,-0.128892525,0.629603748,0.257221307,-0.510708718,0.395290556,-0.254206182,-0.865410011,0.779498435,0.42858558,0.395347081,0.284017629,0.175932484,2.845396803,1.839065455,3.209095483,#DIV/0!,#DIV/0!,-0.047498612,-0.124676754,-0.948913063,-0.214807179,pre
-5.99989152,1.327978296,0.085768811,0.162572093,1.177380515,0.128890297,0.00723246,-0.012022326,0.158687715,0.173499201,0.116303203,0.272088716,0.282880857,0.024759113,0.718653715,0.316484619,-1.062989303,0.354413151,-0.627540325,-0.338561808,0.749591893,0.4624237,0.439526456,0.277632044,0.154115739,2.735331498,0.966101873,1.59747892,#DIV/0!,#DIV/0!,0.349198126,-0.050245894,1.883106313,0.351338236,pre
0.63437754,-0.337395415,-0.000166114,0.255020317,0.975683453,0.019721441,-0.026541347,-0.009472265,0.103947295,0.178087989,0.106703931,0.271679395,0.217525399,0.132172657,0.668181162,0.297627021,0.753203871,0.401092842,-0.933030659,0.034044137,0.812537419,0.485165807,0.455956954,0.298018031,0.181827825,3.134459292,0.355902532,1.014861599,#DIV/0!,#DIV/0!,0.135958725,0.776727999,0.644097836,0.738314995,pre
3.794233942,0.380216451,-0.028274917,0.100891926,0.963414319,-0.088329125,-0.080846563,-0.027957721,0.042584111,0.177948046,0.123029404,0.256149873,0.179538808,0.106314119,0.631026835,0.279427472,-0.005934333,0.401140653,-0.717124924,-0.35754249,0.767904917,0.491602384,0.465181122,0.306862857,0.192744108,2.558040964,0.842720238,0.471157597,#DIV/0!,#DIV/0!,0.204472072,-0.34121735,-1.012974948,-1.897326208,pre
-0.47183299,-0.529667396,0.070629195,0.149063805,1.222495701,-0.065625738,-0.092675891,-0.052402712,0.053065021,0.160759763,0.079325773,0.256767332,0.228254167,0.002944571,0.662896448,0.327408178,-0.696498766,0.458310751,0.099019998,-0.320284883,0.864626778,0.462674356,0.44783819,0.287839177,0.152375444,0.475277523,0.609369755,-0.247814999,#DIV/0!,#DIV/0!,-0.771348152,-0.189851177,-1.583473148,0.492306572,pre
-4.137991905,0.380102542,-0.170364294,0.06566571,1.372238786,0.070790794,-0.050168402,-0.039335576,0.079355533,0.155865809,0.129621284,0.228493117,0.256063259,-0.091126974,0.633250457,0.232181786,-0.209610805,0.390910205,-1.222075884,-0.029805555,0.820441095,0.473199411,0.479344844,0.306501572,0.186021471,0.99537281,2.063718597,-0.449870079,#DIV/0!,#DIV/0!,-0.688837036,-0.35985567,-3.031017269,-0.594329399,pre
-5.158937693,0.528360623,0.121683705,0.110065879,0.502925593,-0.015306619,-0.0841367,-0.064593672,0.059863104,0.155838009,0.08084501,0.231020563,0.153682572,-0.014945015,0.574035675,0.323349209,-0.59129179,0.489202741,-0.665219911,-0.335808281,0.909217887,0.504204312,0.467481427,0.330040652,0.194131344,1.872672969,1.112514825,0.536469318,#DIV/0!,#DIV/0!,0.382654395,0.066641249,1.575809624,0.58664625,pre
